3201.19	16.8448
3200.6	8.42242
3200	0
3199.41	4.20994
3198.82	25.2558
3198.22	-4.20867
3197.63	8.41606
3197.03	21.037
3196.44	25.2406
3195.85	16.8245
3195.25	21.0274
3194.66	16.8194
3194.06	8.40844
3193.47	8.40717
3192.87	37.8265
3192.28	21.0116
3191.68	25.2101
3191.09	16.8042
3190.49	-4.20041
3189.9	12.5993
3189.3	4.19914
3188.71	20.9925
3188.11	12.5936
3187.52	4.19723
3186.92	25.1796
3186.32	4.19597
3185.73	37.758
3185.13	-20.9735
3184.54	0
3183.94	0
3183.34	8.38559
3182.75	25.153
3182.15	-4.19153
3181.55	12.5727
3180.96	37.7123
3180.36	-4.18962
3179.76	12.567
3179.17	4.18836
3178.57	16.7509
3177.97	16.7484
3177.38	8.37291
3176.78	25.1149
3176.18	16.7408
3175.58	8.36911
3174.99	20.9196
3174.39	20.9164
3173.79	12.548
3173.19	4.18202
3172.6	37.6325
3172	8.36151
3171.4	8.36025
3170.8	20.8975
3170.2	20.8943
3169.6	16.7129
3169.01	33.4207
3168.41	-4.17696
3167.81	20.8816
3167.21	8.35139
3166.61	12.5252
3166.01	33.3955
3165.41	12.5214
3164.81	8.34633
3164.22	33.3803
3163.62	33.3752
3163.02	16.6851
3162.42	16.6826
3161.82	12.51
3161.22	29.1856
3160.62	16.675
3160.02	12.5043
3159.42	20.8374
3158.82	-4.16685
3158.22	12.4987
3157.62	33.3247
3157.02	0
3156.42	-8.32865
3155.82	-8.32739
3155.22	20.8153
3154.62	24.9746
3154.02	12.4854
3153.42	24.967
3152.81	16.6422
3152.21	0
3151.61	4.15928
3151.01	20.7932
3150.41	24.9481
3149.81	24.9443
3149.21	24.9405
3148.61	20.7806
3148	16.622
3147.4	12.4646
3146.8	16.6169
3146.2	24.9216
3145.6	4.15297
3144.99	20.7617
3144.39	8.30343
3143.79	12.4533
3143.19	33.2036
3142.59	0
3141.98	41.492
3141.38	20.7428
3140.78	12.4438
3140.17	4.14731
3139.57	-8.29336
3138.97	20.7302
3138.37	12.4363
3137.76	16.5792
3137.16	8.28832
3136.56	20.7177
3135.95	4.1429
3135.35	20.7114
3134.75	12.4249
3134.14	12.4231
3133.54	20.7019
3132.93	8.27952
3132.33	16.5565
3131.73	4.1385
3131.12	20.6894
3130.52	0
3129.91	12.4099
3129.31	12.408
3128.7	20.6768
3128.1	24.8084
3127.49	12.4023
3126.89	12.4004
3126.28	24.7971
3125.68	-4.13222
3125.07	-4.13159
3124.47	-8.26193
3123.86	-4.13034
3123.26	20.6486
3122.65	8.25817
3122.05	4.12846
3121.44	-4.12783
3120.84	41.272
3120.23	0
3119.62	16.5038
3119.02	20.6266
3118.41	-8.24938
3117.81	12.3722
3117.2	24.7406
3116.59	20.6141
3115.99	16.4887
3115.38	-8.24312
3114.77	53.5721
3114.17	28.8421
3113.56	16.4787
3112.95	12.3572
3112.35	8.23685
3111.74	12.3534
3111.13	12.3515
3110.53	12.3496
3109.92	4.11592
3109.31	20.5765
3108.7	24.688
3108.09	24.6843
3107.49	-4.11342
3106.88	24.6767
3106.27	-4.11216
3105.66	24.6692
3105.06	12.3327
3104.45	16.4412
3103.84	24.658
3103.23	0
3102.62	-8.21682
3102.01	4.10779
3101.4	4.10716
3100.8	4.10654
3100.19	28.7414
3099.58	32.8423
3098.97	12.314
3098.36	8.20807
3097.75	20.5171
3097.14	8.20557
3096.53	24.613
3095.92	32.8123
3095.31	20.5046
3094.7	24.6017
3094.09	36.897
3093.48	16.3962
3092.87	16.3937
3092.26	-16.3912
3091.65	8.19433
3091.04	24.5793
3090.43	0
3089.82	4.09529
3089.21	12.284
3088.6	16.3762
3087.99	0
3087.38	4.0928
3086.77	28.6452
3086.16	28.6409
3085.55	40.9093
3084.93	12.2709
3084.32	4.08968
3083.71	12.2672
3083.1	4.08843
3082.49	16.3512
3081.88	8.17438
3081.27	12.2597
3080.65	8.17188
3080.04	4.08532
3079.43	24.5082
3078.82	40.8407
3078.21	8.1669
3077.59	40.8283
3076.98	8.16441
3076.37	12.2447
3075.76	20.4048
3075.14	40.8034
3074.53	0
3073.92	4.07909
3073.3	20.3924
3072.69	16.3114
3072.08	0
3071.46	16.3064
3070.85	16.3039
3070.24	12.2261
3069.62	20.3737
3069.01	12.2224
3068.4	4.0735
3067.78	20.3644
3067.17	44.7948
3066.56	28.5014
3065.94	16.284
3065.33	8.14078
3064.71	16.2791
3064.1	28.484
3063.48	20.3426
3062.87	20.3395
3062.25	16.2691
3061.64	4.06666
3061.02	0
3060.41	20.3271
3059.79	8.1296
3059.18	16.2567
3058.56	24.3813
3057.95	16.2517
3057.33	20.3116
3056.72	16.2468
3056.1	32.4886
3055.49	28.4232
3054.87	32.4787
3054.26	28.4145
3053.64	28.4102
3053.02	-16.2319
3052.41	36.5162
3051.79	16.2269
3051.17	8.11223
3050.56	40.5549
3049.94	-8.10975
3049.32	-8.10851
3048.71	24.3218
3048.09	36.4771
3047.47	16.2096
3046.86	8.10355
3046.24	8.10231
3045.62	24.3032
3045.01	20.2496
3044.39	28.3451
3043.77	28.3408
3043.15	28.3364
3042.54	12.1423
3041.92	20.2341
3041.3	4.0462
3040.68	24.2735
3040.06	12.1349
3039.45	8.0887
3038.83	12.1312
3038.21	32.3449
3037.59	40.4249
3036.97	28.2931
3036.35	8.08251
3035.73	8.08128
3035.12	16.1601
3034.5	20.197
3033.88	16.1551
3033.26	4.03817
3032.64	12.1126
3032.02	12.1108
3031.4	24.2179
3030.78	28.2499
3030.16	4.03508
3029.54	8.06892
3028.92	20.1692
3028.3	8.06645
3027.68	8.06521
3027.06	20.1599
3026.44	24.1882
3025.82	8.06151
3025.2	40.3014
3024.58	36.2657
3023.96	28.2023
3023.34	28.198
3022.72	32.2214
3022.1	40.2705
3021.48	32.2115
3020.86	12.0775
3020.24	28.1764
3019.62	4.02459
3018.99	12.0719
3018.37	20.1168
3017.75	12.0682
3017.13	4.02212
3016.51	32.172
3015.89	16.0835
3015.26	16.0811
3014.64	0
3014.02	16.0762
3013.4	12.0553
3012.78	52.2315
3012.15	52.2235
3011.53	12.0497
3010.91	36.1436
3010.29	36.1381
3009.66	16.0589
3009.04	36.127
3008.42	16.054
3007.79	48.1546
3007.17	32.0981
3006.55	-8.0233
3005.92	36.0993
3005.3	20.0521
3004.68	4.00981
3004.05	32.0735
3003.43	20.0429
3002.81	20.0398
3002.18	24.0441
3001.56	8.01346
3000.94	12.0183
3000.31	24.033
2999.69	-4.00489
2999.06	16.0171
2998.44	16.0146
2997.81	20.0152
2997.19	20.0121
2996.56	20.0091
2995.94	16.0048
2995.31	32.0047
2994.69	15.9999
2994.06	35.9942
2993.44	15.995
2992.81	19.9907
2992.19	23.9851
2991.56	15.9876
2990.94	-3.99629
2990.31	47.9481
2989.69	35.9556
2989.06	3.99445
2988.43	23.963
2987.81	11.9797
2987.18	43.9187
2986.56	31.936
2985.93	15.9655
2985.3	27.9354
2984.68	55.8622
2984.05	31.9164
2983.42	23.9336
2982.8	15.9533
2982.17	27.9139
2981.54	55.8193
2980.92	27.9054
2980.29	23.9152
2979.66	19.9263
2979.03	31.8771
2978.41	39.8403
2977.78	19.9171
2977.15	27.8796
2976.52	23.8932
2975.89	43.7974
2975.27	15.9239
2974.64	27.8625
2974.01	35.8177
2973.38	-7.95827
2972.75	19.8926
2972.13	3.97791
2971.5	27.8411
2970.87	11.9301
2970.24	19.8804
2969.61	19.8773
2968.98	11.9246
2968.35	51.6651
2967.72	23.8418
2967.09	3.97302
2966.46	35.7517
2965.84	51.6334
2965.21	19.8559
2964.58	43.6763
2963.95	27.7897
2963.32	19.8468
2962.69	15.875
2962.06	31.745
2961.43	15.8701
2960.8	7.93382
2960.17	27.7641
2959.54	35.6912
2958.91	35.6857
2958.27	51.5381
2957.64	11.8916
2957.01	43.5957
2956.38	23.7758
2955.75	19.8101
2955.12	55.4598
2954.49	31.6865
2953.86	19.801
2953.23	47.515
2952.59	3.95898
2951.96	39.5837
2951.33	15.831
2950.7	27.7
2950.07	27.6958
2949.44	63.2949
2948.8	19.7766
2948.17	39.5471
2947.54	31.6328
2946.91	31.6279
2946.27	47.4346
2945.64	43.475
2945.01	11.855
2944.38	23.7063
2943.74	15.8018
2943.11	43.4482
2942.48	39.4923
2941.84	35.5376
2941.21	27.6361
2940.58	63.1585
2939.94	27.6276
2939.31	63.139
2938.68	27.6191
2938.04	43.3947
2937.41	35.4993
2936.78	35.4938
2936.14	27.602
2935.51	51.253
2934.87	11.8258
2934.24	23.6479
2933.61	43.3479
2932.97	35.461
2932.34	39.395
2931.7	51.2056
2931.07	35.4445
2930.43	39.3768
2929.8	39.3707
2929.16	11.8094
2928.53	39.3585
2927.89	31.482
2927.26	23.6078
2926.62	43.2743
2925.98	19.6671
2925.35	51.1266
2924.71	31.4577
2924.08	55.0424
2923.44	43.241
2922.81	70.747
2922.17	55.017
2921.53	35.3626
2920.9	27.5
2920.26	66.7754
2919.62	51.0556
2918.99	47.121
2918.35	31.4092
2917.71	58.8831
2917.08	35.3244
2916.44	27.4703
2915.8	19.6186
2915.16	23.5387
2914.53	31.3801
2913.89	31.3752
2913.25	50.9768
2912.61	50.969
2911.98	47.041
2911.34	27.4363
2910.7	23.5132
2910.06	39.1827
2909.43	23.506
2908.79	43.0876
2908.15	31.3316
2907.51	35.2426
2906.87	39.1524
2906.23	27.4024
2905.59	39.1403
2904.96	35.2208
2904.32	35.2154
2903.68	31.2977
2903.04	19.5581
2902.4	19.555
2901.76	54.7456
2901.12	46.9176
2900.48	43.0011
2899.84	35.1773
2899.2	39.0798
2898.56	27.3516
2897.92	31.2542
2897.28	42.9679
2896.64	39.0557
2896	39.0496
2895.36	39.0436
2894.72	0
2894.08	42.9346
2893.44	27.3178
2892.8	35.1175
2892.16	31.2107
2891.52	46.8088
2890.88	54.6018
2890.24	46.7943
2889.59	31.1914
2888.95	27.2882
2888.31	19.4886
2887.67	50.6625
2887.03	35.0686
2886.39	27.2713
2885.74	74.0108
2885.1	46.7364
2884.46	31.1528
2883.82	73.9764
2883.18	23.3573
2882.53	38.9229
2881.89	73.942
2881.25	23.3465
2880.61	19.4524
2879.96	42.7887
2879.32	42.782
2878.68	11.666
2878.04	42.7688
2877.39	3.88747
2876.75	19.4343
2876.11	46.6352
2875.46	31.0853
2874.82	34.9655
2874.18	46.6135
2873.53	31.0708
2872.89	62.1321
2872.24	46.5918
2871.6	58.2308
2870.96	27.1701
2870.31	46.5702
2869.67	38.8025
2869.02	46.5557
2868.38	19.3952
2867.73	15.5138
2867.09	34.9006
2866.44	19.3862
2865.8	50.3963
2865.15	46.5124
2864.51	27.128
2863.86	46.498
2863.22	38.7423
2862.57	73.599
2861.93	46.4764
2861.28	73.5762
2860.64	50.3338
2859.99	42.5835
2859.35	54.1888
2858.7	23.2202
2858.05	30.9554
2857.41	30.9506
2856.76	58.0234
2856.11	34.8086
2855.47	30.9362
2854.82	42.5307
2854.17	23.195
2853.53	19.3261
2852.88	34.7816
2852.23	38.6403
2851.59	42.4977
2850.94	46.3539
2850.29	46.3467
2849.64	46.3395
2849	30.8882
2848.35	42.4647
2847.7	46.3179
2847.05	46.3108
2846.41	30.869
2845.76	42.4383
2845.11	42.4317
2844.46	15.4273
2843.81	23.1374
2843.17	50.1232
2842.52	34.6953
2841.87	19.2722
2841.22	46.2461
2840.57	15.413
2839.92	42.379
2839.27	30.8163
2838.62	19.2572
2837.97	42.3593
2837.33	30.802
2836.68	26.9475
2836.03	34.6414
2835.38	23.0907
2834.73	38.4785
2834.08	11.5418
2833.43	23.0799
2832.78	53.8448
2832.13	26.9182
2831.48	49.9832
2830.83	42.2869
2830.18	23.062
2829.53	34.5876
2828.87	15.3699
2828.22	30.735
2827.57	19.2064
2826.92	53.7695
2826.27	30.7207
2825.62	15.3579
2824.97	34.55
2824.32	26.868
2823.67	3.83769
2823.01	46.0451
2822.36	23.019
2821.71	38.359
2821.06	42.1884
2820.41	30.6777
2819.76	26.8388
2819.1	11.5005
2818.45	11.4988
2817.8	15.3293
2817.15	53.6441
2816.49	19.1556
2815.84	30.6443
2815.19	30.6395
2814.54	3.82934
2813.88	26.8012
2813.23	45.9378
2812.58	34.448
2811.92	22.9617
2811.27	30.6109
2810.62	26.7803
2809.96	34.4265
2809.31	7.64914
2808.66	42.0637
2808	45.8806
2807.35	45.8734
2806.69	0
2806.04	42.0375
2805.38	19.105
2804.73	38.204
2804.08	34.3783
2803.42	30.5537
2802.77	42.0048
2802.11	11.4541
2801.46	22.9046
2800.8	11.4505
2800.15	26.7137
2799.49	30.5251
2798.84	34.3354
2798.18	41.959
2797.53	15.2554
2796.87	45.7592
2796.21	22.876
2795.56	38.1207
2794.9	34.3033
2794.25	34.298
2793.59	64.7749
2792.93	26.6679
2792.28	30.4728
2791.62	26.6596
2790.96	26.6554
2790.31	38.0732
2789.65	22.8404
2788.99	26.6429
2788.34	34.2498
2787.68	3.80494
2787.02	34.2392
2786.37	26.6263
2785.71	64.6538
2785.05	3.80257
2784.39	34.2178
2783.74	38.0138
2783.08	30.4063
2782.42	30.4016
2781.76	15.1984
2781.1	41.7891
2780.45	26.5889
2779.79	37.9782
2779.13	41.7695
2778.47	30.3731
2777.81	34.1644
2777.15	60.7273
2776.5	22.7692
2775.84	34.1484
2775.18	30.3494
2774.52	41.7239
2773.86	34.1324
2773.2	34.1271
2772.54	26.5391
2771.88	26.535
2771.22	34.1111
2770.56	18.9476
2769.9	37.8894
2769.24	30.3068
2768.58	30.302
2767.92	45.4459
2767.26	37.8657
2766.6	34.0738
2765.94	15.1415
2765.28	22.7088
2764.62	15.1368
2763.96	34.0525
2763.3	49.1793
2762.64	37.8243
2761.98	45.382
2761.31	22.6875
2760.65	56.7098
2759.99	18.9003
2759.33	30.2358
2758.67	45.3466
2758.01	60.4526
2757.35	33.9993
2756.68	30.2169
2756.02	7.55303
2755.36	30.2074
2754.7	56.63
2754.04	33.9727
2753.37	52.8382
2752.71	15.0943
2752.05	33.9568
2751.39	41.4962
2750.72	18.859
2750.06	56.568
2749.4	52.7886
2748.73	64.0904
2748.07	33.9249
2747.41	22.6131
2746.74	26.3778
2746.08	22.606
2745.42	64.0402
2744.75	30.1319
2744.09	60.2543
2743.42	45.1836
2742.76	30.1177
2742.1	45.1695
2741.43	41.3989
2740.77	22.5777
2740.1	26.3365
2739.44	26.3324
2738.77	56.4177
2738.11	26.3241
2737.44	15.04
2736.78	37.5941
2736.11	48.8647
2735.45	33.8241
2734.78	60.1223
2734.12	22.5423
2733.45	26.2953
2732.79	45.0705
2732.12	41.3082
2731.46	45.0564
2730.79	33.787
2730.12	30.0282
2729.46	48.7882
2728.79	22.5141
2728.12	52.5246
2727.46	30.0094
2726.79	18.7529
2726.12	30
2725.46	29.9953
2724.79	48.7347
2724.12	22.4894
2723.46	33.7288
2722.79	37.4706
2722.12	44.9576
2721.46	33.7129
2720.79	67.4153
2720.12	56.1706
2719.45	41.1853
2718.78	44.9224
2718.12	37.4294
2717.45	33.6812
2716.78	29.9342
2716.11	18.7059
2715.44	18.703
2714.78	44.8801
2714.11	18.6971
2713.44	41.1272
2712.77	48.5972
2712.1	48.5896
2711.43	29.8966
2710.76	18.6824
2710.09	33.6231
2709.42	52.2944
2708.75	48.5515
2708.09	14.9366
2707.42	41.0691
2706.75	29.8638
2706.08	59.7181
2705.41	44.7816
2704.74	33.5809
2704.07	48.4981
2703.4	52.2205
2702.73	37.2945
2702.06	59.6619
2701.38	29.8262
2700.71	29.8216
2700.04	33.544
2699.37	26.0857
2698.7	40.9853
2698.03	40.9789
2697.36	33.5229
2696.69	37.2418
2696.02	29.7888
2695.34	78.1833
2694.67	48.3915
2694	29.7747
2693.33	40.9338
2692.66	18.6034
2691.99	22.3205
2691.31	33.4755
2690.64	37.1892
2689.97	29.7467
2689.3	40.8952
2688.62	37.1716
2687.95	33.4492
2687.28	37.1599
2686.61	52.0157
2685.93	40.8631
2685.26	40.8566
2684.59	22.2819
2683.91	25.9915
2683.24	33.4124
2682.57	44.5429
2681.89	51.9585
2681.22	25.9752
2680.55	33.3914
2679.87	44.5148
2679.2	55.6348
2678.52	7.4168
2677.85	25.9547
2677.17	14.8289
2676.5	59.3064
2675.83	29.6485
2675.15	29.6439
2674.48	40.7539
2673.8	48.1561
2673.13	44.4448
2672.45	59.2504
2671.78	48.1334
2671.1	44.4238
2670.42	44.4168
2669.75	55.5123
2669.07	33.3021
2668.4	44.3958
2667.72	22.1944
2667.05	33.2864
2666.37	55.4686
2665.69	55.4598
2665.02	55.4511
2664.34	48.05
2663.66	25.869
2662.99	70.2049
2662.31	44.3329
2661.63	44.3259
2660.96	48.0122
2660.28	62.7753
2659.6	11.0762
2658.93	55.3725
2658.25	77.5093
2657.57	36.9034
2656.89	40.5873
2656.22	59.0268
2655.54	40.5745
2654.86	44.2561
2654.18	44.2491
2653.5	44.2422
2652.83	40.5489
2652.15	33.1712
2651.47	29.4808
2650.79	40.5297
2650.11	40.5233
2649.43	29.4669
2648.76	44.1933
2648.08	73.6439
2647.4	36.8162
2646.72	29.4483
2646.04	36.8045
2645.36	47.8384
2644.68	33.1136
2644	44.1445
2643.32	51.4938
2642.64	36.7755
2641.96	29.4158
2641.28	40.4403
2640.6	29.4065
2639.92	29.4018
2639.24	25.7225
2638.56	62.4592
2637.88	55.1023
2637.2	44.0749
2636.52	58.7573
2635.84	22.0305
2635.16	33.0405
2634.47	22.0235
2633.79	47.7101
2633.11	36.6943
2632.43	14.6754
2631.75	47.6875
2631.07	36.6769
2630.39	44.0054
2629.7	51.3315
2629.02	36.6595
2628.34	29.323
2627.66	47.6423
2626.98	47.6348
2626.29	36.6364
2625.61	43.9567
2624.93	40.2873
2624.25	43.9428
2623.56	32.9519
2622.88	36.6074
2622.2	62.2228
2621.51	58.5534
2620.83	58.5441
2620.15	32.9259
2619.46	51.2099
2618.78	36.5727
2618.1	29.2535
2617.41	43.8734
2616.73	51.1775
2616.04	40.2045
2615.36	43.8526
2614.68	29.2304
2613.99	43.8387
2613.31	58.4423
2612.62	69.3893
2611.94	58.4239
2611.25	51.1128
2610.57	62.0557
2609.88	47.4469
2609.2	62.0361
2608.51	36.486
2607.83	40.1283
2607.14	69.3015
2606.46	54.7031
2605.77	40.1092
2605.09	36.4572
2604.4	29.1611
2603.71	32.8011
2603.03	47.3718
2602.34	54.6511
2601.66	40.0711
2600.97	58.2761
2600.28	50.9835
2599.6	47.3343
2598.91	40.0458
2598.22	65.5191
2597.54	43.6725
2596.85	32.7492
2596.16	43.6586
2595.47	43.6517
2594.79	69.1043
2594.1	87.2758
2593.41	50.9028
2592.72	25.4474
2592.04	54.5214
2591.35	47.2444
2590.66	32.7025
2589.97	47.2294
2589.28	50.8544
2588.6	65.3739
2587.91	54.4696
2587.22	29.0458
2586.53	25.4111
2585.84	83.4803
2585.15	47.1771
2584.46	43.5411
2583.77	36.2785
2583.09	50.7819
2582.4	32.6403
2581.71	47.1397
2581.02	47.1322
2580.33	32.6248
2579.64	47.1172
2578.95	36.2383
2578.26	57.972
2577.57	39.8495
2576.88	43.4652
2576.19	61.566
2575.5	47.0724
2574.81	54.3057
2574.12	54.2971
2573.42	68.7654
2572.73	61.5172
2572.04	39.7989
2571.35	68.7326
2570.66	83.1895
2569.97	54.2454
2569.28	54.2368
2568.59	46.9977
2567.89	54.2196
2567.2	18.0703
2566.51	72.2698
2565.82	68.6454
2565.13	43.3481
2564.43	75.8471
2563.74	65.0015
2563.05	32.4956
2562.36	46.9306
2561.66	39.7042
2560.97	43.3068
2560.28	32.4749
2559.59	54.1163
2558.89	43.2862
2558.2	25.2463
2557.51	68.5147
2556.81	50.4765
2556.12	36.0489
2555.43	25.2302
2554.73	32.4337
2554.04	43.238
2553.34	57.6416
2552.65	50.4284
2551.96	57.6232
2551.26	50.4123
2550.57	28.8025
2549.87	82.7939
2549.18	57.5866
2548.48	21.5915
2547.79	39.5782
2547.09	35.9745
2546.4	82.7281
2545.7	46.7519
2545.01	53.936
2544.31	71.9032
2543.62	32.3513
2542.92	28.7521
2542.23	43.1213
2541.53	68.2645
2540.83	35.923
2540.14	53.8759
2539.44	68.232
2538.75	53.8588
2538.05	50.2602
2537.35	46.6627
2536.66	43.0664
2535.96	71.766
2535.26	25.1141
2534.57	60.9817
2533.87	64.5586
2533.17	60.9623
2532.48	82.4652
2531.78	46.6034
2531.08	32.2587
2530.38	53.756
2529.68	57.3306
2528.99	60.904
2528.29	60.8943
2527.59	46.5588
2526.89	60.8749
2526.19	50.1243
2525.5	53.6961
2524.8	64.425
2524.1	60.8362
2523.4	35.7803
2522.7	60.8168
2522	35.7689
2521.3	32.1869
2520.6	39.3332
2519.91	50.0525
2519.21	42.8953
2518.51	28.5923
2517.81	21.4408
2517.11	75.0309
2516.41	75.0189
2515.71	39.2894
2515.01	71.4238
2514.31	46.4181
2513.61	49.9807
2512.91	57.1117
2512.21	57.1026
2511.51	85.6403
2510.8	46.3811
2510.1	89.1802
2509.4	24.9665
2508.7	71.3214
2508	49.917
2507.3	71.2986
2506.6	46.3367
2505.9	74.8397
2505.19	57.0116
2504.49	57.0025
2503.79	60.5555
2503.09	49.8613
2502.39	60.5362
2501.69	74.768
2500.98	42.7178
2500.28	74.7442
2499.58	67.6149
2498.88	67.6041
2498.17	64.0358
2497.47	42.6837
2496.77	67.5717
2496.06	71.1168
2495.36	71.1054
2494.66	49.7658
2493.95	35.5413
2493.25	53.3035
2492.55	63.954
2491.84	46.1816
2491.14	56.8298
2490.44	99.4363
2489.73	71.0146
2489.03	78.1036
2488.32	46.1447
2487.62	81.6277
2486.91	56.7754
2486.21	46.1226
2485.5	88.6832
2484.8	60.2949
2484.09	74.4701
2483.39	42.5475
2482.68	38.9957
2481.98	49.6229
2481.27	67.3346
2480.57	35.4336
2479.86	31.8851
2479.16	74.3868
2478.45	63.7499
2477.74	49.5753
2477.04	42.4863
2476.33	60.1794
2475.63	53.0909
2474.92	38.9271
2474.21	49.5357
2473.51	84.9048
2472.8	88.4283
2472.09	74.2679
2471.39	63.648
2470.68	60.1024
2469.97	60.0928
2469.26	67.1518
2468.56	84.8097
2467.85	56.5308
2467.14	63.5869
2466.43	60.0447
2465.73	63.5666
2465.02	81.211
2464.31	70.6069
2463.6	45.8872
2462.89	81.172
2462.18	81.159
2461.48	77.6179
2460.77	59.9679
2460.06	81.12
2459.35	59.9487
2458.64	91.6715
2457.93	42.3031
2457.22	42.2964
2456.51	52.862
2455.8	56.3771
2455.09	56.3681
2454.38	59.8815
2453.67	63.3938
2452.96	84.5115
2452.25	52.8112
2451.54	63.3633
2450.83	56.3139
2450.12	70.3811
2449.41	66.8513
2448.7	56.2868
2447.99	59.7952
2447.28	56.2688
2446.57	49.2273
2445.86	56.2507
2445.15	70.3022
2444.43	59.7473
2443.72	38.6538
2443.01	63.2415
2442.3	80.7957
2441.59	49.1721
2440.88	38.629
2440.16	87.7791
2439.45	80.7438
2438.74	45.6305
2438.03	84.2274
2437.32	52.6337
2436.6	42.1002
2435.89	66.6479
2435.18	63.13
2434.46	59.6132
2433.75	63.1098
2433.04	73.6163
2432.32	73.6044
2431.61	66.5838
2430.9	59.5654
2430.18	38.5361
2429.47	66.5518
2428.76	45.5281
2428.04	52.524
2427.33	70.0207
2426.61	42.0057
2425.9	69.9983
2425.19	48.9909
2424.47	38.4867
2423.76	55.9716
2423.04	45.4697
2422.33	55.9537
2421.61	62.9378
2420.9	59.4317
2420.18	69.9084
2419.47	45.4331
2418.75	48.9201
2418.04	45.4186
2417.32	73.3566
2416.6	73.3449
2415.89	69.841
2415.17	73.3213
2414.46	76.8004
2413.74	83.7688
2413.02	55.8369
2412.31	52.3387
2411.59	59.3076
2410.87	73.2506
2410.16	69.7513
2409.44	55.792
2408.72	76.7017
2408.01	73.2035
2407.29	55.7651
2406.57	90.6038
2405.85	66.1998
2405.14	38.32
2404.42	66.1785
2403.7	45.2728
2402.98	69.6392
2402.26	97.4792
2401.55	59.1743
2400.83	59.1647
2400.11	55.6755
2399.39	48.7082
2398.67	59.1362
2397.95	66.0828
2397.23	69.5496
2396.51	55.6307
2395.8	52.1454
2395.08	59.0886
2394.36	86.881
2393.64	69.4936
2392.92	72.9566
2392.2	59.0506
2391.48	79.8791
2390.76	69.4489
2390.04	79.8534
2389.32	104.14
2388.6	69.4154
2387.88	62.4638
2387.16	38.1662
2386.44	79.7891
2385.72	76.3077
2384.99	52.0196
2384.27	72.8157
2383.55	55.4697
2382.83	76.2586
2382.11	93.575
2381.39	83.1644
2380.67	48.5047
2379.95	72.7454
2379.22	65.8066
2378.5	58.8701
2377.78	65.7854
2377.06	79.6221
2376.33	107.3
2375.61	79.5965
2374.89	69.2032
2374.17	107.248
2373.44	62.2628
2372.72	100.296
2372	65.7006
2371.28	55.3179
2370.55	72.5931
2369.83	65.6688
2369.11	72.5696
2368.38	51.8271
2367.66	86.3646
2366.93	75.9886
2366.21	79.4298
2365.49	86.3228
2364.76	55.2377
2364.04	51.777
2363.31	58.6711
2362.59	100.07
2361.86	58.6521
2361.14	51.7435
2360.42	72.4293
2359.69	51.7268
2358.97	89.6454
2358.24	82.7362
2357.51	72.3825
2356.79	79.2633
2356.06	93.0332
2355.34	93.0182
2354.61	48.2239
2353.89	89.5441
2353.16	65.4255
2352.43	86.0723
2351.71	65.4044
2350.98	55.0685
2350.26	65.3833
2349.53	86.0167
2348.8	79.1226
2348.07	82.5494
2347.35	72.219
2346.62	61.892
2345.89	55.0062
2345.17	96.2454
2344.44	54.9885
2343.71	41.2347
2342.98	65.2777
2342.26	68.7023
2341.53	58.3875
2340.8	96.1521
2340.07	89.2697
2339.34	78.9565
2338.62	68.6468
2337.89	96.0899
2337.16	58.3309
2336.43	68.6135
2335.7	102.904
2334.97	58.3026
2334.24	68.5802
2333.51	61.7122
2332.78	71.9859
2332.05	78.829
2331.33	89.0966
2330.6	89.0822
2329.87	51.3852
2329.14	85.6282
2328.41	85.6144
2327.68	71.9044
2326.95	78.7397
2326.22	78.727
2325.48	68.4472
2324.75	71.8579
2324.02	85.5313
2323.29	75.2553
2322.56	41.0417
2321.83	82.0701
2321.1	95.733
2320.37	78.6251
2319.64	64.9406
2318.9	71.7649
2318.17	61.5028
2317.44	85.4067
2316.71	54.6514
2315.98	102.455
2315.25	88.7798
2314.51	99.0076
2313.78	75.0971
2313.05	75.0849
2312.32	92.1347
2311.58	78.4724
2310.85	47.7581
2310.12	61.3933
2309.38	64.7935
2308.65	68.1927
2307.92	64.7725
2307.18	71.5791
2306.45	81.7914
2305.72	61.3336
2304.98	85.1718
2304.25	74.939
2303.51	91.9557
2302.78	81.7251
2302.05	88.5212
2301.31	98.7192
2300.58	68.0712
2299.84	61.2541
2299.11	88.4638
2298.37	64.6361
2297.64	91.8365
2296.9	74.8176
2296.17	68.0049
2295.43	67.9939
2294.7	101.974
2293.96	78.1676
2293.23	81.553
2292.49	81.5398
2291.75	88.3204
2291.02	95.0988
2290.28	71.3126
2289.55	67.9057
2288.81	71.2894
2288.07	81.4604
2287.34	91.6281
2286.6	67.8616
2285.86	108.561
2285.12	84.7995
2284.39	88.1771
2283.65	81.3811
2282.91	81.3679
2282.18	88.1342
2281.44	91.5091
2280.7	88.1056
2279.96	105.032
2279.22	74.5267
2278.49	88.0627
2277.75	98.2078
2277.01	132.051
2276.27	88.0197
2275.53	81.2358
2274.79	81.2226
2274.05	74.4419
2273.32	74.4298
2272.58	74.4177
2271.84	84.5519
2271.1	84.5381
2270.36	111.572
2269.62	111.554
2268.88	111.536
2268.14	101.38
2267.4	74.3331
2266.66	84.4557
2265.92	77.6866
2265.18	97.9368
2264.44	77.6614
2263.7	94.5289
2262.96	67.5097
2262.22	104.623
2261.48	80.9852
2260.74	91.0936
2259.99	91.0787
2259.25	84.3185
2258.51	97.7935
2257.77	57.3179
2257.03	107.875
2256.29	97.7458
2255.55	84.2499
2254.8	84.2362
2254.06	104.436
2253.32	117.892
2252.58	90.9306
2251.83	97.6504
2251.09	87.5343
2250.35	104.351
2249.61	97.6027
2248.86	94.2217
2248.12	77.3838
2247.38	70.6433
2246.63	104.266
2245.89	84.0717
2245.15	80.6957
2244.4	97.4915
2243.66	110.92
2242.92	80.6563
2242.17	70.5628
2241.43	100.788
2240.68	63.8217
2239.94	100.755
2239.19	90.6645
2238.45	87.2923
2237.7	104.062
2236.96	83.9075
2236.21	104.028
2235.47	114.077
2234.72	87.2212
2233.98	90.5611
2233.23	70.4249
2232.49	70.4134
2231.74	93.8693
2231	63.6866
2230.25	90.4873
2229.5	67.0167
2228.76	80.4069
2228.01	107.192
2227.27	87.0791
2226.52	120.551
2225.77	90.3988
2225.03	87.0365
2224.28	83.6752
2223.53	103.74
2222.78	97.0316
2222.04	97.0158
2221.29	83.6207
2220.54	96.9841
2219.79	83.5934
2219.05	86.9229
2218.3	110.307
2217.55	110.289
2216.8	76.8557
2216.05	106.912
2215.31	103.554
2214.56	96.8576
2213.81	73.4662
2213.06	96.8259
2212.31	130.193
2211.56	96.7943
2210.81	83.4297
2210.06	96.7627
2209.31	83.4025
2208.56	96.7311
2207.81	113.39
2207.07	90.0306
2206.32	96.6837
2205.57	80.001
2204.82	76.6551
2204.06	86.6395
2203.31	96.6205
2202.56	76.6176
2201.81	79.9357
2201.06	109.894
2200.31	86.5687
2199.56	86.5545
2198.81	106.511
2198.06	93.1821
2197.31	86.5121
2196.56	93.1516
2195.8	93.1364
2195.05	103.098
2194.3	79.8051
2193.55	119.688
2192.8	106.372
2192.04	86.4131
2191.29	86.399
2190.54	126.255
2189.79	79.7268
2189.03	99.6422
2188.28	63.0964
2187.53	102.93
2186.78	96.2736
2186.02	116.173
2185.27	82.9673
2184.52	69.6811
2183.76	92.8929
2183.01	79.6095
2182.25	96.1791
2181.5	126.007
2180.75	109.409
2179.99	119.336
2179.24	119.317
2178.48	122.611
2177.73	106.024
2176.97	106.007
2176.22	76.1801
2175.46	79.4793
2174.71	82.7773
2173.95	92.6954
2173.2	92.6802
2172.44	99.284
2171.69	109.195
2170.93	92.6347
2170.18	99.2352
2169.42	92.6044
2168.67	119.043
2167.91	102.493
2167.15	82.6418
2166.4	89.2385
2165.64	79.3101
2164.88	89.2093
2164.13	79.2842
2163.37	108.998
2162.61	108.98
2161.86	92.4527
2161.1	102.342
2160.34	92.4224
2159.58	92.4072
2158.83	98.9915
2158.07	92.3769
2157.31	122.049
2156.55	108.837
2155.79	125.307
2155.04	85.7223
2154.28	102.191
2153.52	148.317
2152.76	98.8617
2152	95.5506
2151.24	125.184
2150.48	118.576
2149.72	102.09
2148.96	128.415
2148.21	95.4723
2147.45	88.8734
2146.69	105.314
2145.93	95.4252
2145.17	95.4096
2144.41	124.999
2143.65	134.845
2142.89	118.381
2142.13	88.7713
2141.37	105.193
2140.6	101.889
2139.84	111.731
2139.08	85.4273
2138.32	82.1282
2137.56	82.1147
2136.8	98.5214
2136.04	82.0877
2135.28	101.772
2134.52	128.015
2133.75	134.557
2132.99	108.285
2132.23	118.109
2131.47	124.65
2130.71	147.588
2129.94	127.889
2129.18	98.3597
2128.42	114.734
2127.65	117.993
2126.89	134.359
2126.13	95.0185
2125.37	140.866
2124.6	101.538
2123.84	117.896
2123.08	130.974
2122.31	114.583
2121.55	117.838
2120.78	117.818
2120.02	117.799
2119.26	130.866
2118.49	117.76
2117.73	94.8468
2116.96	120.991
2116.2	107.894
2115.43	101.338
2114.67	107.858
2113.9	107.84
2113.14	98.0205
2112.37	124.139
2111.61	114.32
2110.84	120.832
2110.08	111.017
2109.31	140.38
2108.55	114.244
2107.78	101.171
2107.01	114.207
2106.25	110.925
2105.48	110.907
2104.71	123.935
2103.95	136.958
2103.18	123.894
2102.41	114.094
2101.65	127.112
2100.88	130.35
2100.11	87.9718
2099.34	104.246
2098.58	110.743
2097.81	113.981
2097.04	107.45
2096.27	97.666
2095.51	104.16
2094.74	139.942
2093.97	120.395
2093.2	107.362
2092.43	126.861
2091.66	130.093
2090.89	113.812
2090.13	143.055
2089.36	139.78
2088.59	123.506
2087.82	110.488
2087.05	129.964
2086.28	113.7
2085.51	110.433
2084.74	120.157
2083.97	126.631
2083.2	123.364
2082.43	113.606
2081.66	133.059
2080.89	107.079
2080.12	139.504
2079.35	152.456
2078.58	129.728
2077.81	97.2802
2077.03	113.475
2076.26	100.49
2075.49	126.402
2074.72	116.659
2073.95	136.08
2073.18	129.579
2072.4	106.885
2071.63	113.344
2070.86	126.276
2070.09	145.68
2069.32	152.129
2068.54	119.741
2067.77	129.429
2067	122.937
2066.23	139.09
2065.45	103.492
2064.68	129.343
2063.91	116.39
2063.13	119.603
2062.36	142.207
2061.59	109.869
2060.81	129.237
2060.04	138.906
2059.26	145.343
2058.49	109.797
2057.72	119.465
2056.94	116.217
2056.17	142.019
2055.39	148.45
2054.62	125.839
2053.84	154.853
2053.07	154.828
2052.29	125.777
2051.52	116.082
2050.74	132.183
2049.97	141.831
2049.19	112.802
2048.41	128.895
2047.64	106.321
2046.86	128.852
2046.09	144.935
2045.31	125.59
2044.53	141.667
2043.76	86.9178
2042.98	138.402
2042.2	141.597
2041.43	122.268
2040.65	138.333
2039.87	119.011
2039.09	118.991
2038.32	106.11
2037.54	131.812
2036.76	154.291
2035.98	125.34
2035.21	138.173
2034.43	138.15
2033.65	144.552
2032.87	118.834
2032.09	138.081
2031.31	147.69
2030.53	144.456
2029.76	157.27
2028.98	131.572
2028.2	147.593
2027.42	147.568
2026.64	137.921
2025.86	105.829
2025.08	118.637
2024.3	105.794
2023.52	102.571
2022.74	128.193
2021.96	128.171
2021.18	115.335
2020.4	134.535
2019.62	108.892
2018.84	150.502
2018.06	121.662
2017.28	128.044
2016.49	137.624
2015.71	102.401
2014.93	115.182
2014.15	131.158
2013.37	105.549
2012.59	127.917
2011.8	118.303
2011.02	163.04
2010.24	127.853
2009.46	127.832
2008.68	146.982
2007.89	150.152
2007.11	150.128
2006.33	150.103
2005.55	134.112
2004.76	134.09
2003.98	127.683
2003.2	150.003
2002.41	146.787
2001.63	146.763
2000.84	111.649
2000.06	159.472
1999.28	121.178
1998.49	146.665
1997.71	130.702
1996.92	137.055
1996.14	162.526
1995.36	168.872
1994.57	156.101
1993.79	152.89
1993	146.495
1992.22	152.839
1991.43	140.079
1990.64	146.422
1989.86	181.406
1989.07	146.373
1988.29	114.534
1987.5	155.867
1986.72	136.759
1985.93	139.916
1985.14	104.92
1984.36	165.3
1983.57	127.133
1982.78	149.356
1982	174.75
1981.21	139.777
1980.42	168.339
1979.64	127.027
1978.85	136.532
1978.06	174.604
1977.27	152.357
1976.49	152.331
1975.7	171.344
1974.91	117.383
1974.12	136.395
1973.33	142.716
1972.54	145.863
1971.76	120.475
1970.97	145.814
1970.18	123.605
1969.39	152.103
1968.6	148.91
1967.81	139.382
1967.02	171.031
1966.23	183.669
1965.44	180.473
1964.65	142.455
1963.86	139.266
1963.07	148.736
1962.28	158.204
1961.49	142.36
1960.7	145.499
1959.91	148.637
1959.12	148.613
1958.33	158.072
1957.54	154.885
1956.75	148.538
1955.96	154.833
1955.17	189.56
1954.37	173.735
1953.58	145.281
1952.79	151.572
1952	138.918
1951.21	195.716
1950.42	167.277
1949.62	173.561
1948.83	141.981
1948.04	189.276
1947.25	186.09
1946.45	141.91
1945.66	145.039
1944.87	135.557
1944.07	173.358
1943.28	176.481
1942.49	166.999
1941.69	173.272
1940.9	125.995
1940.11	157.467
1939.31	147.994
1938.52	157.415
1937.72	160.536
1936.93	179.393
1936.14	160.483
1935.34	154.163
1934.55	150.992
1933.75	163.547
1932.96	179.243
1932.16	176.069
1931.37	135.173
1930.57	166.581
1929.77	147.698
1928.98	141.39
1928.18	138.225
1927.39	179.034
1926.59	163.302
1925.79	156.995
1925	153.829
1924.2	153.803
1923.41	163.193
1922.61	166.303
1921.81	153.726
1921.01	141.154
1920.22	197.582
1919.42	166.192
1918.62	159.894
1917.83	150.463
1917.03	162.975
1916.23	169.215
1915.43	156.654
1914.63	178.556
1913.84	181.658
1913.04	134.655
1912.24	159.68
1911.44	144.001
1910.64	162.757
1909.84	172.118
1909.04	203.378
1908.24	147.033
1907.45	203.31
1906.65	165.748
1905.85	187.608
1905.05	143.809
1904.25	153.162
1903.45	187.514
1902.65	178.108
1901.85	171.83
1901.05	178.049
1900.25	165.527
1899.45	174.867
1898.64	196.692
1897.84	196.659
1897.04	171.658
1896.24	127.942
1895.44	177.84
1894.64	162.213
1893.84	205.852
1893.04	152.804
1892.23	165.25
1891.43	149.635
1890.63	180.779
1889.83	177.632
1889.03	171.371
1888.22	183.803
1887.42	186.887
1886.62	155.713
1885.81	177.483
1885.01	177.454
1884.21	158.748
1883.4	168.058
1882.6	174.253
1881.8	199.113
1880.99	208.411
1880.19	143.064
1879.39	174.136
1878.58	183.434
1877.78	186.512
1876.97	189.588
1876.17	198.879
1875.36	201.953
1874.56	139.79
1873.75	183.249
1872.95	149.059
1872.14	136.615
1871.34	183.157
1870.53	207.957
1869.73	148.959
1868.92	195.476
1868.12	214.057
1867.31	217.123
1866.5	176.771
1865.7	201.547
1864.89	173.611
1864.09	179.781
1863.28	173.553
1862.47	192.115
1861.66	198.279
1860.86	182.758
1860.05	173.436
1859.24	207.469
1858.44	188.858
1857.63	213.591
1856.82	191.89
1856.01	188.763
1855.2	188.731
1854.4	154.672
1853.59	204.133
1852.78	160.805
1851.97	191.697
1851.16	204.03
1850.35	173.087
1849.54	182.329
1848.74	163.76
1847.93	179.178
1847.12	213.125
1846.31	194.56
1845.5	176
1844.69	163.622
1843.88	182.115
1843.07	166.653
1842.26	175.882
1841.45	197.449
1840.64	181.992
1839.83	203.55
1839.02	203.516
1838.2	215.814
1837.39	151.044
1836.58	188.003
1835.77	194.135
1834.96	200.264
1834.15	212.552
1833.34	218.676
1832.52	197.084
1831.71	190.893
1830.9	203.174
1830.09	193.906
1829.28	209.26
1828.46	199.995
1827.65	209.19
1826.84	221.458
1826.02	199.894
1825.21	199.86
1824.4	172.158
1823.59	221.309
1822.77	184.393
1821.96	187.435
1821.14	202.764
1820.33	190.443
1819.52	211.909
1818.7	214.944
1817.89	178.067
1817.07	202.593
1816.26	202.559
1815.44	184.114
1814.63	214.763
1813.81	180.984
1813	187.088
1812.18	205.455
1811.37	214.619
1810.55	180.862
1809.74	168.572
1808.92	183.866
1808.11	202.218
1807.29	196.057
1806.47	202.15
1805.66	214.365
1804.84	208.206
1804.02	208.171
1803.21	247.926
1802.39	183.618
1801.57	211.125
1800.76	232.504
1799.94	204.936
1799.12	214.076
1798.3	198.752
1797.49	189.547
1796.67	223.138
1795.85	204.764
1795.03	207.785
1794.21	201.639
1793.4	216.878
1792.58	189.355
1791.76	210.698
1790.94	195.397
1790.12	228.942
1789.3	219.748
1788.48	207.504
1787.66	219.673
1786.84	231.838
1786.02	167.749
1785.2	231.76
1784.38	204.28
1783.56	195.1
1782.74	204.211
1781.92	185.892
1781.1	216.33
1780.28	204.108
1779.46	234.532
1778.64	231.447
1777.82	207.049
1777	240.502
1776.18	222.198
1775.35	203.901
1774.53	206.909
1773.71	188.621
1772.89	228.132
1772.07	234.176
1771.25	231.095
1770.42	228.016
1769.6	249.255
1768.78	212.743
1767.96	227.9
1767.13	215.709
1766.31	197.447
1765.49	261.193
1764.66	212.563
1763.84	212.527
1763.02	221.598
1762.19	233.701
1761.37	230.627
1760.54	227.554
1759.72	203.247
1758.9	227.477
1758.07	242.601
1757.25	224.368
1756.42	242.519
1755.6	218.23
1754.77	230.315
1753.95	239.366
1753.12	218.119
1752.3	224.14
1751.47	221.074
1750.65	193.785
1749.82	242.191
1748.99	199.773
1748.17	211.845
1747.34	245.093
1746.52	211.773
1745.69	226.861
1744.86	217.75
1744.04	220.737
1743.21	202.56
1742.38	217.639
1741.55	217.603
1740.73	229.653
1739.9	214.508
1739.07	217.492
1738.24	238.597
1737.42	229.497
1736.59	235.497
1735.76	250.55
1734.93	217.308
1734.1	223.306
1733.27	268.526
1732.45	244.347
1731.62	211.128
1730.79	223.155
1729.96	214.072
1729.13	247.196
1728.3	274.281
1727.47	216.976
1726.64	241.044
1725.81	244.016
1724.98	265.058
1724.15	219.841
1723.32	237.869
1722.49	222.777
1721.66	213.709
1720.83	225.711
1720	243.726
1719.17	231.651
1718.34	219.58
1717.5	237.587
1716.67	228.526
1715.84	255.545
1715.01	246.484
1714.18	210.377
1713.35	237.385
1712.51	237.345
1711.68	216.278
1710.85	231.258
1710.02	249.236
1709.18	216.168
1708.35	228.138
1707.52	234.102
1706.68	228.061
1705.85	255.025
1705.02	227.983
1704.18	209.949
1703.35	242.9
1702.52	266.844
1701.68	233.824
1700.85	227.79
1700.01	221.757
1699.18	257.674
1698.35	287.588
1697.51	227.635
1696.68	272.516
1695.84	254.505
1695.01	248.474
1694.17	257.412
1693.34	260.36
1692.5	218.426
1691.66	236.339
1690.83	284.157
1689.99	227.287
1689.16	224.258
1688.32	212.261
1687.48	239.127
1686.65	236.098
1685.81	253.986
1684.97	247.968
1684.14	265.848
1683.3	250.87
1682.46	241.869
1681.63	238.842
1680.79	274.622
1679.95	253.684
1679.11	247.672
1678.27	211.828
1677.44	274.435
1676.6	229.651
1675.76	274.342
1674.92	244.48
1674.08	274.248
1673.24	256.319
1672.41	262.235
1671.57	289.005
1670.73	265.125
1669.89	253.166
1669.05	238.233
1668.21	244.147
1667.37	250.059
1666.53	285.733
1665.69	318.419
1664.85	291.587
1664.01	276.663
1663.17	249.846
1662.33	288.464
1661.49	237.868
1660.64	276.474
1659.8	264.538
1658.96	276.38
1658.12	261.476
1657.28	276.286
1656.44	240.595
1655.6	234.614
1654.75	243.482
1653.91	255.316
1653.07	276.05
1652.23	237.422
1651.38	270.021
1650.54	225.474
1649.7	293.659
1648.86	281.746
1648.01	287.629
1647.17	254.967
1646.33	269.745
1645.48	308.228
1644.64	284.469
1643.8	245.905
1642.95	299.183
1642.11	233.975
1641.26	299.081
1640.42	278.305
1639.57	298.979
1638.73	275.25
1637.88	239.693
1637.04	275.156
1636.19	266.235
1635.35	272.105
1634.5	245.444
1633.66	272.012
1632.81	251.272
1631.97	263.052
1631.12	289.603
1630.28	254.098
1629.43	245.192
1628.58	262.872
1627.74	268.733
1626.89	253.924
1626.04	268.642
1625.2	274.499
1624.35	268.55
1623.5	268.504
1622.65	262.558
1621.81	286.109
1620.96	271.315
1620.11	262.423
1619.26	256.482
1618.41	250.543
1617.57	279.971
1616.72	268.137
1615.87	294.605
1615.02	259.208
1614.17	267.999
1613.32	250.286
1612.47	276.739
1611.62	250.2
1610.77	282.531
1609.92	285.425
1609.07	261.84
1608.22	273.561
1607.37	288.219
1606.52	291.111
1605.67	264.601
1604.82	291.011
1603.97	273.327
1603.12	334.989
1602.27	282.047
1601.42	267.312
1600.57	246.707
1599.72	249.601
1598.87	270.11
1598.01	240.709
1597.16	267.083
1596.31	313.989
1595.46	275.793
1594.61	246.411
1593.75	307.961
1592.9	269.787
1592.05	284.4
1591.2	287.283
1590.34	296.026
1589.49	260.81
1588.64	269.555
1587.78	260.721
1586.93	295.824
1586.08	269.417
1585.22	286.938
1584.37	254.687
1583.51	263.424
1582.66	278.011
1581.81	272.112
1580.95	298.394
1580.1	263.244
1579.24	271.972
1578.39	239.762
1577.53	301.113
1576.68	321.522
1575.82	327.311
1574.96	265.895
1574.11	262.928
1573.25	254.12
1572.4	292.042
1571.54	315.351
1570.68	294.861
1569.83	265.621
1568.97	291.841
1568.11	271.366
1567.26	285.906
1566.4	277.106
1565.54	317.888
1564.69	317.834
1563.83	311.948
1562.97	308.98
1562.11	291.44
1561.26	276.821
1560.4	291.34
1559.54	302.942
1558.68	311.627
1557.82	279.542
1556.96	299.874
1556.1	267.803
1555.25	302.682
1554.39	290.99
1553.53	244.39
1552.67	343.25
1551.81	331.558
1550.95	322.777
1550.09	261.666
1549.23	299.411
1548.37	281.921
1547.51	261.531
1546.65	281.824
1545.79	290.49
1544.93	284.631
1544.07	322.333
1543.2	267.113
1542.34	316.416
1541.48	301.85
1540.62	322.111
1539.76	313.352
1538.9	261.081
1538.03	275.538
1537.17	263.891
1536.31	304.438
1535.45	298.587
1534.59	301.434
1533.72	278.199
1532.86	286.844
1532	292.588
1531.13	292.538
1530.27	292.487
1529.41	298.228
1528.54	292.387
1527.68	292.336
1526.82	300.968
1525.95	306.703
1525.09	289.292
1524.22	251.641
1523.36	329.68
1522.49	286.251
1521.63	294.875
1520.76	317.947
1519.9	312.113
1519.03	317.838
1518.17	314.894
1517.3	309.063
1516.44	306.122
1515.57	308.956
1514.71	357.981
1513.84	314.623
1512.97	303.025
1512.11	326.056
1511.24	331.77
1510.37	297.099
1509.51	285.512
1508.64	285.463
1507.77	320.009
1506.91	294.012
1506.04	325.663
1505.17	354.421
1504.3	285.217
1503.43	325.494
1502.57	316.798
1501.7	279.31
1500.83	310.931
1499.96	310.877
1499.09	279.165
1498.22	290.627
1497.35	276.192
1496.49	325.045
1495.62	287.601
1494.75	333.559
1493.88	339.252
1493.01	304.699
1492.14	359.253
1491.27	255.744
1490.4	333.271
1489.53	281.508
1488.66	336.028
1487.79	315.869
1486.92	333.041
1486.04	304.278
1485.17	344.406
1484.3	298.434
1483.43	295.513
1482.56	283.988
1481.69	312.619
1480.82	326.903
1479.94	338.315
1479.07	323.924
1478.2	321.002
1477.33	338.14
1476.45	335.216
1475.58	355.21
1474.71	349.421
1473.84	317.86
1472.96	323.532
1472.09	306.3
1471.22	349.179
1470.34	343.395
1469.47	351.919
1468.59	340.416
1467.72	326.056
1466.85	346.017
1465.97	374.549
1465.1	351.615
1464.22	322.972
1463.35	354.351
1462.47	334.289
1461.6	377.082
1460.72	368.448
1459.85	359.817
1458.97	348.334
1458.1	308.308
1457.22	351.067
1456.34	322.469
1455.47	342.386
1454.59	393.676
1453.71	370.79
1452.84	356.467
1451.96	373.513
1451.08	359.194
1450.21	367.683
1449.33	367.619
1448.45	350.46
1447.58	350.399
1446.7	353.187
1445.82	367.364
1444.94	330.286
1444.06	330.229
1443.18	352.942
1442.31	330.114
1441.43	338.593
1440.55	358.448
1439.67	381.14
1438.79	349.792
1437.91	361.105
1437.03	375.256
1436.15	360.979
1435.27	395.019
1434.39	352.33
1433.51	360.792
1432.63	355.048
1431.75	335.107
1430.87	346.407
1429.99	352.025
1429.11	332.095
1428.23	354.74
1427.35	343.329
1426.47	377.313
1425.59	357.392
1424.7	320.463
1423.82	340.255
1422.94	351.536
1422.06	342.972
1421.18	342.912
1420.29	308.851
1419.41	405.119
1418.53	354.063
1417.65	348.338
1416.76	356.772
1415.88	356.71
1415	336.834
1414.11	322.625
1413.23	331.058
1412.35	333.83
1411.46	330.943
1410.58	333.714
1409.7	356.276
1408.81	313.808
1407.93	364.632
1407.04	341.96
1406.16	384.285
1405.27	395.519
1404.39	375.677
1403.5	344.546
1402.62	330.368
1401.73	347.25
1400.85	364.125
1399.96	352.773
1399.07	338.603
1398.19	366.757
1397.3	352.589
1396.41	358.168
1395.53	355.286
1394.64	377.778
1393.75	369.256
1392.87	338.191
1391.98	357.857
1391.09	366.246
1390.2	349.282
1389.32	363.303
1388.43	335.081
1387.54	349.099
1386.65	360.298
1385.76	394.007
1384.88	326.406
1383.99	368.55
1383.1	407.866
1382.21	424.669
1381.32	410.536
1380.43	390.784
1379.54	404.771
1378.65	365.354
1377.76	365.291
1376.87	384.893
1375.98	401.68
1375.09	407.227
1374.2	404.348
1373.31	393.047
1372.42	373.33
1371.53	406.943
1370.64	373.2
1369.75	412.412
1368.86	392.705
1367.97	381.418
1367.07	417.805
1366.18	389.696
1365.29	434.477
1364.4	372.745
1363.51	397.899
1362.61	414.639
1361.72	389.356
1360.83	375.285
1359.94	400.421
1359.04	391.952
1358.15	369.491
1357.26	363.829
1356.36	369.362
1355.47	358.106
1354.58	400.002
1353.68	380.355
1352.79	363.511
1351.89	371.835
1351	433.266
1350.11	352.142
1349.21	377.229
1348.32	374.369
1347.42	365.924
1346.53	390.995
1345.63	399.304
1344.73	357.357
1343.84	404.747
1342.94	404.677
1342.05	412.977
1341.15	401.745
1340.26	410.043
1339.36	418.339
1338.46	379.227
1337.57	345.706
1336.67	393.032
1335.77	404.111
1334.87	378.962
1333.98	384.468
1333.08	398.328
1332.18	409.399
1331.28	361.99
1330.39	414.824
1329.49	403.617
1328.59	400.763
1327.69	378.433
1326.79	442.355
1325.89	422.806
1325	403.264
1324.1	389.29
1323.2	394.783
1322.3	405.832
1321.4	405.761
1320.5	405.69
1319.6	383.394
1318.7	388.882
1317.8	366.596
1316.9	430.397
1316	397.007
1315.1	433.022
1314.2	382.991
1313.29	391.248
1312.39	344.016
1311.49	374.468
1310.59	393.816
1309.69	374.337
1308.79	385.361
1307.89	357.575
1306.98	390.769
1306.08	399.013
1305.18	393.403
1304.28	418.263
1303.37	390.495
1302.47	393.196
1301.57	423.58
1300.66	376.45
1299.76	395.757
1298.86	398.454
1297.95	381.785
1297.05	448.104
1296.15	425.901
1295.24	425.826
1294.34	422.987
1293.43	433.969
1292.53	436.657
1291.62	408.948
1290.72	408.877
1289.81	477.86
1288.91	414.257
1288	450.08
1287.1	411.351
1286.19	488.566
1285.29	427.765
1284.38	438.727
1283.47	416.58
1282.57	410.99
1281.66	466.075
1280.75	441.177
1279.85	421.801
1278.94	427.24
1278.03	396.85
1277.13	396.78
1276.22	388.446
1275.31	418.676
1274.4	393.817
1273.5	393.748
1272.59	410.197
1271.68	388.105
1270.77	346.756
1269.86	387.968
1268.95	371.394
1268.04	354.825
1267.14	349.263
1266.23	365.699
1265.32	390.377
1264.41	390.308
1263.5	373.751
1262.59	379.18
1261.68	357.136
1260.77	365.313
1259.86	357.011
1258.95	370.676
1258.04	378.847
1257.13	332.119
1256.21	354.015
1255.3	386.879
1254.39	353.891
1253.48	373.028
1252.57	375.705
1251.66	370.155
1250.75	378.314
1249.83	345.357
1248.92	372.7
1248.01	328.795
1247.1	394.485
1246.18	367.026
1245.27	353.269
1244.36	334.04
1243.44	358.619
1242.53	355.819
1241.62	358.493
1240.7	383.055
1239.79	380.252
1238.88	366.509
1237.96	374.649
1237.05	355.443
1236.13	374.517
1235.22	325.253
1234.3	377.117
1233.39	379.783
1232.47	346.935
1231.56	363.262
1230.64	352.275
1229.73	344.021
1228.81	330.312
1227.89	346.63
1226.98	354.755
1226.06	373.791
1225.15	338.263
1224.23	338.203
1223.31	332.689
1222.4	389.887
1221.48	329.846
1220.56	346.141
1219.64	356.98
1218.73	318.773
1217.81	359.578
1216.89	362.239
1215.97	348.559
1215.05	321.271
1214.14	310.326
1213.22	337.488
1212.3	331.986
1211.38	353.693
1210.46	312.827
1209.54	342.689
1208.62	353.506
1207.7	320.818
1206.78	377.846
1205.86	353.319
1204.94	350.539
1204.02	342.327
1203.1	361.281
1202.18	334.058
1201.26	347.576
1200.34	358.375
1199.42	339.31
1198.5	347.392
1197.58	333.763
1196.66	328.278
1195.73	322.795
1194.81	336.298
1193.89	355.22
1192.97	355.157
1192.05	325.277
1191.12	314.379
1190.2	327.872
1189.28	357.616
1188.35	327.756
1187.43	319.574
1186.51	357.426
1185.59	324.875
1184.66	322.111
1183.74	319.348
1182.81	378.82
1181.89	365.226
1180.97	327.293
1180.04	335.348
1179.12	335.289
1178.19	348.747
1177.27	354.091
1176.34	321.599
1175.42	340.456
1174.49	351.202
1173.57	356.542
1172.64	340.275
1171.71	372.616
1170.79	340.155
1169.86	345.493
1168.94	356.227
1168.01	345.371
1167.08	369.589
1166.16	364.129
1165.23	312.826
1164.3	342.43
1163.37	315.411
1162.45	363.871
1161.52	336.858
1160.59	382.603
1159.66	369.066
1158.73	350.146
1157.81	363.549
1156.88	382.332
1155.95	363.42
1155.02	352.59
1154.09	395.584
1153.16	376.68
1152.23	373.923
1151.3	389.995
1150.37	354.967
1149.44	416.743
1148.51	344.088
1147.58	349.402
1146.65	360.089
1145.72	378.833
1144.79	338.471
1143.86	343.783
1142.93	413.541
1142	410.782
1141.07	346.284
1140.14	354.275
1139.2	381.046
1138.27	375.613
1137.34	356.769
1136.41	391.571
1135.48	388.82
1134.54	383.389
1133.61	367.238
1132.68	383.253
1131.75	372.467
1130.81	372.401
1129.88	364.298
1128.95	364.234
1128.01	364.169
1127.08	374.813
1126.14	390.807
1125.21	388.062
1124.28	396.02
1123.34	417.353
1122.41	379.83
1121.47	419.879
1120.54	398.413
1119.6	384.975
1118.67	414.309
1117.73	355.441
1116.8	347.361
1115.86	339.285
1114.92	422.028
1113.99	381.894
1113.05	405.857
1112.11	389.767
1111.18	392.367
1110.24	349.598
1109.3	368.213
1108.37	394.825
1107.43	373.417
1106.49	373.351
1105.55	383.95
1104.62	394.545
1103.68	389.144
1102.74	351.766
1101.8	426.307
1100.86	364.96
1099.93	370.223
1098.99	375.483
1098.05	383.403
1097.11	335.418
1096.17	388.59
1095.23	388.521
1094.29	367.167
1093.35	361.781
1092.41	398.952
1091.47	380.267
1090.53	366.905
1089.59	345.574
1088.65	385.379
1087.71	358.737
1086.77	361.33
1085.83	371.891
1084.88	398.384
1083.94	385.036
1083	337.178
1082.06	392.862
1081.12	382.176
1080.18	398.029
1079.23	424.489
1078.29	342.183
1077.35	373.948
1076.41	376.533
1075.46	392.372
1074.52	373.748
1073.58	397.533
1072.63	405.411
1071.69	415.936
1070.75	352.291
1069.8	357.525
1068.86	405.122
1067.91	375.929
1066.97	404.978
1066.02	396.966
1065.08	436.585
1064.13	404.761
1063.19	391.464
1062.24	412.55
1061.3	407.188
1060.35	444.126
1059.41	364.753
1058.46	412.256
1057.51	367.265
1056.57	343.424
1055.62	361.851
1054.67	419.884
1053.73	345.88
1052.78	414.454
1051.83	409.101
1050.89	382.639
1049.94	419.509
1048.99	390.417
1048.04	411.447
1047.09	400.825
1046.15	353.296
1045.2	384.866
1044.25	424.331
1043.3	424.255
1042.35	424.179
1041.4	416.201
1040.45	387.155
1039.5	376.553
1038.55	360.689
1037.6	357.993
1036.66	418.461
1035.7	381.547
1034.75	394.633
1033.8	394.562
1032.85	402.382
1031.9	349.72
1030.95	381.206
1030	389.023
1029.05	402.094
1028.1	354.725
1027.15	373.052
1026.19	391.372
1025.24	367.666
1024.29	362.349
1023.34	385.911
1022.39	351.72
1021.43	401.519
1020.48	320.108
1019.53	388.258
1018.57	377.697
1017.62	340.915
1016.67	359.208
1015.71	385.359
1014.76	395.774
1013.81	379.98
1012.85	372.051
1011.9	377.224
1010.94	343.107
1009.99	398.038
1009.03	371.785
1008.08	342.923
1007.12	384.738
1006.17	387.286
1005.21	381.984
1004.26	379.299
1003.3	374.001
1002.34	397.468
1001.39	381.71
1000.43	389.483
999.476	376.346
998.519	381.505
997.562	378.824
996.605	378.756
995.648	352.571
994.69	402.12
993.733	368.109
992.775	404.586
991.817	349.709
990.859	412.269
989.901	388.716
988.942	412.121
987.983	352.066
987.025	378.077
986.066	375.402
985.107	388.367
984.147	375.267
983.188	354.355
982.228	385.553
981.268	372.46
980.308	351.56
979.348	403.571
978.388	356.641
977.427	395.618
976.466	426.774
975.506	382.467
974.545	429.222
973.583	395.334
972.622	491.478
971.66	465.39
970.699	512.097
969.737	540.594
968.775	571.68
967.812	623.538
966.85	667.586
965.887	729.797
964.925	714.086
963.962	812.613
962.999	859.191
962.035	869.417
961.072	794.012
960.108	910.614
959.144	918.232
958.18	790.99
957.216	676.758
956.252	725.893
955.287	653.187
954.323	598.647
953.358	536.353
952.393	533.666
951.428	486.947
950.462	523.115
949.497	447.934
948.531	429.732
947.565	427.066
946.599	414.05
945.633	413.976
944.666	388.033
943.7	375.031
942.733	382.721
941.766	364.554
940.799	405.848
939.832	354.084
938.864	377.277
937.897	400.462
936.929	348.727
935.961	408.066
934.993	353.765
934.024	369.192
933.056	389.776
932.087	387.125
931.118	363.832
930.149	384.406
929.18	384.336
928.211	371.372
927.241	371.305
926.271	407.331
925.302	371.171
924.331	391.721
923.361	340.118
922.391	396.732
921.42	360.601
920.449	347.66
919.478	355.321
918.507	370.703
917.536	342.324
916.565	373.143
915.593	424.534
914.621	370.436
913.649	370.369
912.677	360.016
911.705	383.09
910.732	383.021
909.759	400.943
908.786	398.301
907.813	375.106
906.84	357.057
905.867	380.107
904.893	372.335
903.919	408.211
902.945	382.468
901.971	361.868
900.997	346.407
900.023	361.737
899.048	336.021
898.073	397.511
897.098	371.798
896.123	376.858
895.148	351.158
894.172	361.345
893.196	422.774
892.221	353.529
891.244	402.131
890.268	381.571
889.292	407.106
888.315	391.673
887.339	353.21
886.362	386.413
885.384	383.785
884.407	342.786
883.43	406.665
882.452	381.02
881.474	380.951
880.496	370.657
879.518	398.703
878.54	360.301
877.561	403.669
876.583	360.171
875.604	431.616
874.625	383.022
873.645	408.483
872.666	423.724
871.686	403.231
870.707	405.709
869.727	415.841
868.747	436.171
867.766	410.59
866.786	413.065
865.805	405.342
864.824	428.209
863.843	405.195
862.862	387.286
861.881	407.596
860.899	450.822
859.917	438.007
858.936	427.743
857.953	417.483
856.971	450.495
855.989	430.056
855.006	422.345
854.023	452.794
853.04	417.105
852.057	467.887
851.074	447.463
850.09	460.091
849.107	437.135
848.123	449.76
847.139	444.598
846.155	381.015
845.17	388.565
844.186	421.503
843.201	479.817
842.216	421.35
841.231	428.887
840.246	398.362
839.26	408.437
838.275	421.045
837.289	405.753
836.303	431.034
835.317	403.07
834.33	402.997
833.344	392.788
832.357	392.716
831.37	374.913
830.383	382.443
829.396	379.841
828.408	397.495
827.421	356.921
826.433	387.227
825.445	414.991
824.457	399.736
823.468	384.486
822.48	386.945
821.491	366.646
820.502	364.052
819.513	389.262
818.524	389.192
817.535	396.701
816.545	368.84
815.555	320.782
814.565	366.18
813.575	373.688
812.585	388.767
811.594	381.125
810.604	358.343
809.613	333.047
808.622	378.394
807.631	358.148
806.639	320.257
805.648	342.89
804.656	332.745
803.664	337.725
802.672	337.663
801.68	365.315
800.687	304.794
799.694	352.59
798.702	370.152
797.709	329.803
796.715	339.812
795.722	364.917
794.728	354.785
793.735	362.268
792.741	372.263
791.747	342.018
790.752	374.642
789.758	377.088
788.763	346.858
787.768	369.411
786.773	361.807
785.778	359.229
784.783	381.768
783.787	326.452
782.792	343.968
781.796	376.539
780.8	353.882
779.803	361.345
778.807	386.368
777.81	356.197
776.813	358.64
775.816	333.499
774.819	330.931
773.822	365.963
772.824	365.897
771.827	360.819
770.829	368.269
769.831	363.192
768.832	328.065
767.834	370.571
766.835	340.463
765.836	367.933
764.837	365.363
763.838	395.321
762.839	342.716
761.839	362.662
760.84	382.601
759.84	362.53
758.84	337.466
757.839	407.385
756.839	387.32
755.838	412.233
754.837	382.182
753.836	364.63
752.835	359.57
751.834	354.511
750.832	351.95
749.83	356.877
748.828	381.764
747.826	364.231
746.824	369.153
745.822	366.592
744.819	331.618
743.816	363.965
742.813	351.436
741.81	346.388
740.806	388.681
739.803	383.627
738.799	351.179
737.795	390.958
736.791	343.582
735.787	365.922
734.782	363.366
733.778	390.672
732.773	360.746
731.768	375.604
730.762	350.666
729.757	375.467
728.751	390.315
727.746	370.358
726.74	342.954
725.733	327.983
724.727	360.218
723.721	332.83
722.714	350.153
721.707	342.64
720.7	337.612
719.693	389.672
718.685	379.675
717.678	347.351
716.67	404.342
715.662	389.387
714.654	394.275
713.645	401.641
712.637	379.258
711.628	406.45
710.619	391.508
709.61	364.185
708.601	366.595
707.591	329.38
706.582	393.698
705.572	393.626
704.562	361.376
703.551	400.905
702.541	385.986
701.531	432.918
700.52	388.318
699.509	375.882
698.498	398.066
697.486	393.049
696.475	392.977
695.463	402.789
694.451	392.832
693.439	390.29
692.427	395.158
691.414	392.616
690.402	372.794
689.389	382.599
688.376	399.804
687.363	355.316
686.349	384.855
685.336	397.117
684.322	379.782
683.308	357.521
682.294	384.573
681.28	389.432
680.265	404.146
679.251	396.68
678.236	389.217
677.221	379.294
676.206	408.774
675.19	364.382
674.175	393.855
673.159	406.088
672.143	398.631
671.127	317.37
670.11	376.347
669.094	383.656
668.077	354.079
667.06	361.389
666.043	353.948
665.026	395.661
664.008	380.846
662.991	390.603
661.973	390.531
660.955	402.738
659.936	405.119
658.918	365.767
657.899	392.698
656.881	399.987
655.862	363.112
654.843	407.199
653.823	402.219
652.804	424.214
651.784	404.523
650.764	401.997
649.744	397.022
648.724	411.651
647.703	416.475
646.683	396.803
645.662	384.485
644.641	396.657
643.619	352.519
642.598	379.378
641.576	440.486
640.555	418.385
639.533	408.523
638.511	381.544
637.488	388.81
636.466	418.077
635.443	430.222
634.42	405.703
633.397	422.733
632.374	381.122
631.35	381.052
630.326	410.288
629.303	427.305
628.279	432.109
627.254	407.621
626.23	439.271
625.205	441.63
624.18	431.79
623.155	419.515
622.13	419.438
621.105	421.799
620.079	416.846
619.054	407.02
618.028	421.566
617.002	458.033
615.975	443.333
614.949	452.993
613.922	409.08
612.895	440.653
611.868	440.572
610.841	450.225
609.813	416.077
608.786	440.328
607.758	476.731
606.73	401.256
605.702	437.653
604.673	420.555
603.645	459.366
602.616	422.83
601.587	456.767
600.558	425.103
599.528	442.026
598.499	485.653
597.469	512.269
596.439	422.362
595.409	478.103
594.379	453.75
593.348	499.76
592.318	485.115
591.287	465.624
590.256	438.867
589.224	494.543
588.193	470.213
587.161	436.2
586.129	460.348
585.097	428.771
584.065	450.49
583.033	472.2
582	418.849
580.967	428.454
579.935	452.577
578.901	418.617
577.868	462.087
576.834	503.122
575.801	444.987
574.767	437.651
573.733	454.492
572.698	449.574
571.664	422.908
570.629	454.24
569.594	410.673
568.559	458.902
567.524	434.669
566.488	391.13
565.453	461.062
564.417	407.879
563.381	407.804
562.345	439.092
561.308	402.829
560.272	455.811
559.235	400.268
558.198	402.605
557.161	433.865
556.123	419.325
555.086	433.704
554.048	414.352
553.01	387.781
551.972	421.422
550.933	418.937
549.895	382.75
548.856	488.578
547.817	416.297
546.778	435.467
545.739	418.548
544.699	428.091
543.66	425.607
542.62	430.336
541.58	408.623
540.539	410.951
539.499	415.68
538.458	449.236
537.417	405.918
536.376	434.66
535.335	393.763
534.294	424.897
533.252	424.818
532.21	407.942
531.168	395.87
530.126	424.582
529.084	462.876
528.041	441.209
526.998	424.345
525.955	474.603
524.912	426.584
523.869	419.317
522.825	433.613
521.782	409.58
520.738	402.32
519.693	447.737
518.649	397.382
517.605	421.243
516.56	387.663
515.515	428.264
514.47	452.105
513.425	435.28
512.379	461.502
511.333	399.257
510.287	442.208
509.241	418.227
508.195	444.433
507.149	415.683
506.102	432.325
505.055	453.737
504.008	465.591
502.961	405.825
501.913	405.749
500.866	417.605
499.818	391.283
498.77	393.596
497.722	429.297
496.673	400.603
495.625	376.687
494.576	438.592
493.527	426.594
492.478	414.601
491.428	416.906
490.379	412.065
489.329	409.607
488.279	388.102
487.229	426.118
486.178	421.279
485.128	428.339
484.077	430.639
483.026	416.286
481.975	444.748
480.923	418.508
479.872	397.033
478.82	434.992
477.768	401.639
476.716	434.829
475.664	413.367
474.611	437.043
473.558	429.837
472.506	420.259
471.452	455.789
470.399	408.235
469.346	405.786
468.292	434.181
467.238	455.45
466.184	448.25
465.13	438.681
464.075	450.453
463.02	455.11
461.966	424.216
460.91	459.679
459.855	431.165
458.8	438.19
457.744	412.059
456.688	475.91
455.632	456.883
454.576	473.366
453.519	435.415
452.463	501.58
451.406	468.37
450.349	456.457
449.292	482.382
448.234	498.842
447.176	479.838
446.119	458.479
445.061	460.756
444.002	500.831
442.944	493.652
441.885	484.114
440.826	526.523
439.767	542.949
438.708	486.202
437.649	486.112
436.589	486.021
435.529	476.494
434.469	464.613
433.409	518.76
432.349	476.227
431.288	525.638
430.227	504.329
429.166	468.891
428.105	525.343
427.044	513.468
425.982	539.276
424.92	492.085
423.858	515.534
422.796	470.719
421.734	517.694
420.671	484.659
419.608	491.625
418.545	486.83
417.482	472.63
416.419	434.926
415.355	463.051
414.291	465.315
413.227	448.78
412.163	439.299
411.099	432.171
410.034	464.966
408.969	478.966
407.904	424.886
406.839	452.97
405.774	474.004
404.708	450.454
403.642	433.95
402.576	471.393
401.51	480.683
400.444	454.805
399.377	471.128
398.31	487.444
397.243	435.805
396.176	452.122
395.109	491.854
394.041	451.952
392.973	454.209
391.905	489.236
390.837	442.337
389.769	435.234
388.7	477.264
387.631	481.852
386.562	423.296
385.493	430.231
384.424	453.528
383.354	444.093
382.284	469.716
381.214	446.263
380.144	485.892
379.074	469.452
378.003	413.32
376.932	455.267
375.861	452.847
374.79	480.768
373.719	441.01
372.647	489.92
371.575	438.512
370.503	419.773
369.431	431.353
368.359	454.584
367.286	435.852
366.213	459.074
365.14	428.699
364.067	496.172
362.994	437.854
361.92	440.1
360.846	426.049
359.772	428.296
358.698	467.779
357.624	476.998
356.549	437.36
355.474	444.256
354.399	441.847
353.324	488.265
352.248	457.953
351.173	460.191
350.097	446.162
349.021	476.281
347.945	466.9
346.868	462.168
345.791	401.708
344.715	464.315
343.638	454.943
342.56	489.668
341.483	403.726
340.405	447.727
339.327	447.643
338.249	452.196
337.171	477.615
336.092	482.161
335.014	449.623
333.935	442.587
332.856	442.504
331.777	454.002
330.697	444.653
329.617	426.046
328.537	469.951
327.457	465.233
326.377	462.831
325.297	467.372
324.216	464.97
323.135	439.441
322.054	474.045
320.972	457.771
319.891	462.308
318.809	501.51
317.727	462.134
316.645	492.08
315.563	489.677
314.48	466.491
313.397	471.021
312.315	487.092
311.231	489.308
310.148	466.14
309.064	500.659
307.981	454.43
306.897	445.119
305.812	472.706
304.728	465.7
303.643	465.612
302.559	481.656
301.474	465.436
300.388	453.83
299.303	485.99
298.217	472.081
297.132	495.016
296.046	448.883
294.959	469.512
293.873	464.822
292.786	473.936
291.699	469.247
290.612	457.659
289.525	459.872
288.438	496.568
287.35	457.4
286.262	540.043
285.174	503.179
284.086	496.193
282.997	496.099
281.909	475.338
280.82	491.319
279.731	470.568
278.641	518.674
277.552	495.63
276.462	529.949
275.372	495.443
274.282	447.19
273.192	541.112
272.101	495.162
271.01	465.272
269.919	531.639
268.828	508.627
267.737	474.171
266.645	490.113
265.553	503.759
264.461	494.506
263.369	476.101
262.277	519.493
261.184	507.954
260.091	491.844
258.998	505.474
257.905	498.518
256.812	500.71
255.718	493.758
254.624	500.521
253.53	511.851
252.436	559.731
251.341	550.488
250.247	493.29
249.152	486.347
248.057	561.59
246.961	508.987
245.866	531.711
244.77	522.484
243.674	538.353
242.578	535.97
241.482	531.308
240.385	512.968
239.288	524.268
238.191	505.937
237.094	530.905
235.997	521.692
234.899	510.205
233.801	519.217
232.703	548.717
231.605	544.06
230.507	546.233
229.408	550.681
228.309	541.476
227.21	511.802
226.111	568.561
225.011	559.358
223.912	536.518
222.812	543.235
221.712	522.679
220.611	547.573
219.511	552.012
218.41	563.264
217.309	576.781
216.208	567.59
215.107	556.133
214.005	533.332
212.903	533.231
211.801	551.279
210.699	539.833
209.597	585.086
208.494	544.163
207.391	575.796
206.288	589.286
205.185	582.375
204.082	543.749
202.978	573.093
201.874	545.807
200.77	563.818
199.666	543.336
198.561	572.658
197.456	597.442
196.352	552.076
195.246	551.971
194.141	563.175
193.036	565.329
191.93	585.57
190.824	533.468
189.718	607.947
188.611	551.342
187.505	591.902
186.398	580.495
185.291	607.485
184.184	587.048
183.076	571.134
181.968	591.339
180.861	559.634
179.752	550.503
178.644	586.489
177.536	566.08
176.427	554.698
175.318	572.628
174.209	565.757
173.1	565.649
171.99	576.807
170.88	540.654
169.77	596.858
168.66	562.966
167.55	535.842
166.439	569.505
165.328	542.389
164.217	562.537
163.106	587.177
161.994	566.821
160.883	571.211
159.771	620.568
158.659	548.513
157.547	588.865
156.434	608.977
155.321	626.834
154.208	599.759
153.095	579.432
151.982	608.512
150.868	597.171
149.754	619.503
148.64	587.967
147.526	650.679
146.412	628.122
145.297	594.359
144.182	625.639
143.067	647.94
141.952	620.917
140.836	647.693
139.721	694.624
138.605	678.809
137.489	624.923
136.372	683.029
135.256	651.552
134.139	660.382
133.022	696.067
131.905	695.934
130.787	698.038
129.67	722.51
128.552	720.136
127.434	708.818
126.316	744.452
125.197	744.31
124.078	695.003
122.959	784.243
121.84	763.988
120.721	788.41
119.601	794.958
118.482	797.039
117.362	816.976
116.241	823.515
115.121	827.82
114	845.509
112.88	776.203
111.758	827.345
110.637	791.513
109.516	769.069
108.394	804.582
107.272	806.657
106.15	753.033
105.028	768.481
103.905	719.339
102.782	679.122
101.659	716.837
100.536	710.022
