3201.19	122.125
3200.6	67.3794
3200	101.054
3199.41	122.088
3198.82	67.3489
3198.22	88.382
3197.63	92.5767
3197.03	143.051
3196.44	63.1014
3195.85	113.565
3195.25	67.2878
3194.66	100.917
3194.06	79.8802
3193.47	79.8681
3192.87	67.2472
3192.28	63.0347
3191.68	96.6386
3191.09	67.2167
3190.49	79.8078
3189.9	88.1952
3189.3	71.3854
3188.71	75.5731
3188.11	100.749
3187.52	113.325
3186.92	83.932
3186.32	79.7233
3185.73	71.3206
3185.13	92.2833
3184.54	79.6872
3183.94	75.4817
3183.34	100.627
3182.75	100.612
3182.15	79.639
3181.55	71.2452
3180.96	75.4246
3180.36	108.93
3179.76	62.8349
3179.17	75.3904
3178.57	75.379
3177.97	108.864
3177.38	71.1697
3176.78	87.9023
3176.18	79.5186
3175.58	75.322
3174.99	83.6784
3174.39	25.0997
3173.79	75.2878
3173.19	75.2764
3172.6	75.265
3172	100.338
3171.4	91.9627
3170.8	75.2308
3170.2	87.756
3169.6	66.8516
3169.01	100.262
3168.41	83.5392
3167.81	75.1739
3167.21	108.568
3166.61	50.1008
3166.01	83.4886
3165.41	87.6498
3164.81	66.7707
3164.22	75.1056
3163.62	83.4381
3163.02	50.0553
3162.42	62.5596
3161.82	45.8701
3161.22	100.065
3160.62	70.8687
3160.02	70.8579
3159.42	58.3447
3158.82	75.0033
3158.22	62.4933
3157.62	66.6494
3157.02	91.629
3156.42	62.4649
3155.82	66.6191
3155.22	79.0982
3154.62	29.137
3154.02	70.7506
3153.42	49.934
3152.81	74.8897
3152.21	79.0383
3151.61	74.867
3151.01	74.8556
3150.41	66.5283
3149.81	74.8329
3149.21	62.3513
3148.61	54.0296
3148	91.4209
3147.4	78.9424
3146.8	70.622
3146.2	74.7649
3145.6	78.9065
3144.99	74.7422
3144.39	91.3377
3143.79	49.813
3143.19	91.31
3142.59	74.6969
3141.98	66.3871
3141.38	62.2285
3140.78	78.8108
3140.17	62.2096
3139.57	58.0535
3138.97	74.6289
3138.37	74.6176
3137.76	62.1719
3137.16	78.7391
3136.56	74.5836
3135.95	78.7152
3135.35	37.2805
3134.75	99.3995
3134.14	62.1153
3133.54	62.1058
3132.93	49.6771
3132.33	62.087
3131.73	57.939
3131.12	82.7575
3130.52	86.8822
3129.91	62.0493
3129.31	57.9038
3128.7	33.0829
3128.1	90.9641
3127.49	90.9503
3126.89	70.2691
3126.28	57.8599
3125.68	70.2478
3125.07	45.4475
3124.47	74.3574
3123.86	66.0854
3123.26	82.5942
3122.65	61.9362
3122.05	61.9268
3121.44	57.7896
3120.84	49.5264
3120.23	74.2783
3119.62	45.3854
3119.02	78.3811
3118.41	74.2445
3117.81	45.3647
3117.2	74.2219
3116.59	70.0878
3115.99	53.5884
3115.38	70.0665
3114.77	82.4186
3114.17	78.2858
3113.56	74.1542
3112.95	70.0239
3112.35	70.0132
3111.74	53.5314
3111.13	61.7576
3110.53	82.3309
3109.92	74.0866
3109.31	57.6141
3108.7	65.8347
3108.09	82.2808
3107.49	69.9281
3106.88	69.9174
3106.27	49.346
3105.66	45.2269
3105.06	57.5528
3104.45	82.2058
3103.84	78.0836
3103.23	45.1994
3102.62	41.0841
3102.01	41.0779
3101.4	57.5003
3100.8	69.8111
3100.19	65.6946
3099.58	69.7899
3098.97	86.1979
3098.36	94.3928
3097.75	61.5512
3097.14	45.1307
3096.53	90.2476
3095.92	69.7261
3095.31	45.11
3094.7	65.6046
3094.09	86.0929
3093.48	73.7827
3092.87	57.3778
3092.26	57.3691
3091.65	57.3603
3091.04	53.2551
3090.43	69.6306
3089.82	40.9529
3089.21	102.367
3088.6	69.5988
3087.99	94.1487
3087.38	85.9488
3086.77	90.0279
3086.16	98.1972
3085.55	45.0002
3084.93	77.7158
3084.32	94.0627
3083.71	85.8702
3083.1	61.3265
3082.49	73.5806
3081.88	69.4822
3081.27	53.1253
3080.65	40.8594
3080.04	40.8532
3079.43	85.7786
3078.82	61.2611
3078.21	73.5021
3077.59	65.3253
3076.98	73.4797
3076.37	65.3053
3075.76	57.1334
3075.14	61.2051
3074.53	65.2755
3073.92	57.1073
3073.3	73.4125
3072.69	61.1677
3072.08	57.0812
3071.46	85.6087
3070.85	93.7476
3070.24	81.5072
3069.62	69.2706
3069.01	57.0376
3068.4	77.3964
3067.78	61.0931
3067.17	52.9393
3066.56	65.1461
3065.94	69.2072
3065.33	56.9854
3064.71	48.8372
3064.1	89.5212
3063.48	73.2334
3062.87	73.2223
3062.25	77.2784
3061.64	60.9999
3061.02	89.4529
3060.41	44.7196
3059.79	109.75
3059.18	93.4761
3058.56	89.3983
3057.95	73.1329
3057.33	60.9347
3056.72	73.1105
3056.1	77.1604
3055.49	77.1486
3054.87	73.077
3054.26	64.9474
3053.64	93.3477
3053.02	105.507
3052.41	77.0897
3051.79	68.9645
3051.17	85.1784
3050.56	89.2209
3049.94	64.878
3049.32	60.8138
3048.71	77.0191
3048.09	89.1663
3047.47	60.7859
3046.86	101.294
3046.24	60.7674
3045.62	56.7075
3045.01	93.1481
3044.39	101.232
3043.77	101.217
3043.15	76.9132
3042.54	64.7591
3041.92	97.1238
3041.3	72.8317
3040.68	56.6382
3040.06	105.169
3039.45	72.7983
3038.83	93.0058
3038.21	88.9484
3037.59	117.232
3036.97	84.8794
3036.35	92.9489
3035.73	68.6908
3035.12	113.121
3034.5	88.8668
3033.88	80.7757
3033.26	121.145
3032.64	88.826
3032.02	108.997
3031.4	80.7262
3030.78	80.7139
3030.16	88.7717
3029.54	100.861
3028.92	96.8122
3028.3	52.4319
3027.68	108.88
3027.06	68.5438
3026.44	100.784
3025.82	96.7381
3025.2	96.7233
3024.58	104.768
3023.96	80.5781
3023.34	124.877
3022.72	96.6641
3022.1	80.541
3021.48	120.793
3020.86	100.645
3020.24	128.806
3019.62	92.5655
3018.99	108.647
3018.37	132.771
3017.75	104.591
3017.13	112.619
3016.51	88.4731
3015.89	136.71
3015.26	108.547
3014.64	104.511
3014.02	108.514
3013.4	92.4237
3012.78	128.57
3012.15	112.481
3011.53	132.547
3010.91	128.511
3010.29	104.399
3009.66	140.515
3009.04	124.437
3008.42	132.445
3007.79	112.361
3007.17	140.429
3006.55	108.315
3005.92	148.408
3005.3	128.333
3004.68	144.353
3004.05	164.377
3003.43	128.274
3002.81	144.287
3002.18	120.22
3001.56	132.222
3000.94	164.251
3000.31	152.209
2999.69	128.156
2999.06	120.128
2998.44	148.135
2997.81	160.122
2997.19	144.087
2996.56	148.067
2995.94	160.048
2995.31	172.025
2994.69	179.999
2994.06	171.972
2993.44	143.955
2992.81	155.927
2992.19	171.893
2991.56	203.842
2990.94	151.859
2990.31	159.827
2989.69	203.748
2989.06	171.761
2988.43	199.692
2987.81	163.722
2987.18	187.653
2986.56	199.6
2985.93	235.492
2985.3	235.455
2984.68	191.528
2984.05	223.414
2983.42	247.314
2982.8	239.299
2982.17	219.324
2981.54	239.226
2980.92	223.243
2980.29	219.223
2979.66	195.278
2979.03	247.048
2978.41	254.978
2977.78	242.989
2977.15	211.089
2976.52	258.843
2975.89	302.6
2975.27	230.896
2974.64	246.782
2974.01	290.521
2973.38	270.581
2972.75	294.411
2972.13	286.41
2971.5	290.343
2970.87	314.158
2970.24	294.23
2969.61	286.233
2968.98	321.963
2968.35	321.914
2967.72	294.049
2967.09	258.246
2966.46	357.517
2965.84	309.8
2965.21	325.637
2964.58	341.469
2963.95	337.447
2963.32	361.211
2962.69	357.187
2962.06	329.355
2961.43	325.337
2960.8	337.187
2960.17	349.034
2959.54	333.118
2958.91	364.787
2958.27	289.406
2957.64	329
2957.01	332.913
2956.38	356.637
2955.75	320.924
2955.12	384.257
2954.49	352.512
2953.86	356.418
2953.23	368.242
2952.59	324.636
2951.96	391.878
2951.33	383.903
2950.7	403.629
2950.07	399.61
2949.44	526.139
2948.8	431.13
2948.17	478.52
2947.54	482.4
2946.91	466.512
2946.27	498.063
2945.64	584.937
2945.01	580.895
2944.38	545.246
2943.74	549.112
2943.11	628.024
2942.48	560.791
2941.84	564.653
2941.21	619.838
2940.58	647.374
2939.94	686.742
2939.31	651.121
2938.68	587.891
2938.04	615.415
2937.41	627.154
2936.78	642.832
2936.14	674.278
2935.51	638.691
2934.87	618.883
2934.24	717.321
2933.61	693.566
2932.97	642.237
2932.34	626.38
2931.7	649.917
2931.07	638.002
2930.43	657.592
2929.8	610.246
2929.16	641.643
2928.53	657.287
2927.89	716.215
2927.26	641.346
2926.62	641.247
2925.98	649.015
2925.35	648.915
2924.71	633.086
2924.08	621.193
2923.44	625.028
2922.81	683.888
2922.17	585.538
2921.53	679.748
2920.9	726.785
2920.26	624.546
2919.62	655.869
2918.99	640.06
2918.35	702.78
2917.71	604.533
2917.08	655.464
2916.44	733.849
2915.8	710.193
2915.16	694.391
2914.53	698.206
2913.89	713.786
2913.25	745.046
2912.61	693.962
2911.98	693.855
2911.34	756.459
2910.7	697.559
2910.06	787.572
2909.43	705.179
2908.79	720.738
2908.15	693.212
2907.51	747.927
2906.87	802.624
2906.23	720.293
2905.59	778.892
2904.96	731.81
2904.32	759.087
2903.68	774.619
2903.04	797.969
2902.4	739.18
2901.76	680.41
2901.12	785.869
2900.48	766.202
2899.84	742.632
2899.2	781.597
2898.56	765.846
2897.92	734.473
2897.28	761.703
2896.64	753.774
2896	800.517
2895.36	788.68
2894.72	757.328
2894.08	768.92
2893.44	800.022
2892.8	745.271
2892.16	756.86
2891.52	768.445
2890.88	815.127
2890.24	811.102
2889.59	810.976
2888.95	799.156
2888.31	748.362
2887.67	818.394
2887.03	814.371
2886.39	845.412
2885.74	779.061
2885.1	794.519
2884.46	755.455
2883.82	798.166
2883.18	809.721
2882.53	794.027
2881.89	770.554
2881.25	766.543
2880.61	797.548
2879.96	774.086
2879.32	777.855
2878.68	781.623
2878.04	730.957
2877.39	758.056
2876.75	703.523
2876.11	742.276
2875.46	683.876
2874.82	617.724
2874.18	730.278
2873.53	695.21
2872.89	660.153
2872.24	710.525
2871.6	710.415
2870.96	714.186
2870.31	651.982
2869.67	729.486
2869.02	702.215
2868.38	768.05
2867.73	628.307
2867.09	686.378
2866.44	678.517
2865.8	655.152
2865.15	635.67
2864.51	728.582
2863.86	705.22
2863.22	774.847
2862.57	720.496
2861.93	770.733
2861.28	797.721
2860.64	789.853
2859.99	789.731
2859.35	836.056
2858.7	762.395
2858.05	824.188
2857.41	858.88
2856.76	932.243
2856.11	827.672
2855.47	908.751
2854.82	893.144
2854.17	858.213
2853.53	919.924
2852.88	877.27
2852.23	869.406
2851.59	846.09
2850.94	849.822
2850.29	838.103
2849.64	787.772
2849	760.622
2848.35	745.063
2847.7	663.891
2847.05	598.181
2846.41	578.794
2845.76	586.421
2845.11	601.759
2844.46	505.245
2843.81	458.892
2843.17	431.831
2842.52	377.793
2841.87	389.298
2841.22	339.138
2840.57	319.819
2839.92	346.738
2839.27	331.276
2838.62	269.601
2837.97	261.857
2837.33	231.015
2836.68	200.182
2836.03	280.981
2835.38	230.907
2834.73	219.328
2834.08	184.668
2833.43	203.873
2832.78	184.611
2832.13	184.582
2831.48	180.709
2830.83	207.59
2830.18	196.027
2829.53	157.566
2828.87	161.384
2828.22	176.726
2827.57	130.603
2826.92	192.034
2826.27	165.124
2825.62	172.777
2824.97	188.105
2824.32	168.885
2823.67	161.183
2823.01	168.832
2822.36	153.46
2821.71	172.616
2821.06	161.083
2820.41	176.397
2819.76	153.364
2819.1	145.674
2818.45	160.983
2817.8	130.299
2817.15	168.596
2816.49	172.401
2815.84	141.73
2815.19	141.708
2814.54	130.198
2813.88	137.835
2813.23	141.641
2812.58	133.964
2811.92	133.943
2811.27	153.054
2810.62	145.379
2809.96	133.881
2809.31	137.685
2808.66	130.015
2808	133.818
2807.35	129.975
2806.69	137.599
2806.04	156.685
2805.38	129.914
2804.73	114.612
2804.08	148.972
2803.42	141.311
2802.77	126.014
2802.11	118.359
2801.46	122.158
2800.8	110.688
2800.15	118.303
2799.49	156.441
2798.84	129.712
2798.18	125.877
2797.53	125.857
2796.87	129.651
2796.21	129.631
2795.56	99.1139
2794.9	144.836
2794.25	129.57
2793.59	129.55
2792.93	118.101
2792.28	125.7
2791.62	129.489
2790.96	91.3899
2790.31	121.834
2789.65	125.622
2788.99	117.99
2788.34	106.555
2787.68	129.368
2787.02	102.717
2786.37	190.188
2785.71	163.536
2785.05	114.077
2784.39	125.465
2783.74	110.24
2783.08	140.629
2782.42	136.807
2781.76	106.389
2781.1	151.96
2780.45	113.953
2779.79	117.733
2779.13	117.714
2778.47	148.069
2777.81	113.881
2777.15	121.455
2776.5	132.82
2775.84	129.005
2775.18	106.223
2774.52	113.792
2773.86	136.53
2773.2	125.133
2772.54	117.53
2771.88	113.721
2771.22	106.123
2770.56	128.844
2769.9	121.246
2769.24	117.439
2768.58	124.996
2767.92	143.912
2767.26	117.384
2766.6	121.151
2765.94	151.415
2765.28	140.037
2764.62	121.094
2763.96	136.21
2763.3	128.623
2762.64	151.297
2761.98	132.364
2761.31	143.687
2760.65	139.884
2759.99	120.962
2759.33	154.958
2758.67	151.155
2758.01	117.127
2757.35	143.553
2756.68	128.422
2756.02	151.061
2755.36	166.141
2754.7	158.564
2754.04	143.44
2753.37	158.515
2752.71	177.358
2752.05	173.557
2751.39	181.074
2750.72	143.328
2750.06	158.391
2749.4	184.76
2748.73	120.641
2748.07	135.7
2747.41	180.904
2746.74	113.048
2746.08	162.01
2745.42	150.683
2744.75	158.192
2744.09	143.104
2743.42	161.908
2742.76	154.353
2742.1	169.386
2741.43	131.724
2740.77	127.94
2740.1	173.068
2739.44	195.612
2738.77	161.731
2738.11	172.987
2737.44	195.52
2736.78	199.249
2736.11	157.871
2735.45	214.219
2734.78	214.186
2734.12	225.423
2733.45	191.58
2732.79	221.597
2732.12	202.786
2731.46	214.018
2730.79	187.706
2730.12	191.43
2729.46	202.659
2728.79	213.884
2728.12	183.836
2727.46	202.563
2726.79	187.529
2726.12	187.5
2725.46	206.217
2724.79	153.702
2724.12	213.649
2723.46	217.363
2722.79	221.076
2722.12	191.07
2721.46	194.786
2720.79	220.972
2720.12	202.214
2719.45	194.694
2718.78	209.638
2718.12	202.119
2717.45	209.572
2716.78	194.572
2716.11	164.612
2715.44	175.808
2714.78	198.22
2714.11	183.232
2713.44	216.852
2712.77	205.604
2712.1	205.571
2711.43	171.905
2710.76	160.669
2710.09	179.323
2709.42	179.295
2708.75	194.206
2708.09	168.036
2707.42	201.612
2706.75	179.183
2706.08	186.619
2705.41	182.858
2704.74	167.904
2704.07	171.609
2703.4	160.392
2702.73	149.178
2702.06	171.528
2701.38	152.86
2700.71	201.296
2700.04	163.993
2699.37	156.514
2698.7	156.489
2698.03	189.993
2697.36	201.137
2696.69	156.416
2696.02	167.562
2695.34	156.367
2694.67	204.733
2694	152.596
2693.33	148.85
2692.66	156.268
2691.99	148.803
2691.31	163.658
2690.64	141.319
2689.97	197.072
2689.3	159.863
2688.62	152.404
2687.95	156.096
2687.28	141.208
2686.61	163.478
2685.93	163.452
2685.26	159.712
2684.59	133.692
2683.91	163.375
2683.24	129.937
2682.57	159.612
2681.89	163.298
2681.22	159.562
2680.55	140.986
2679.87	211.445
2679.2	207.703
2678.52	155.753
2677.85	185.391
2677.17	166.826
2676.5	163.093
2675.83	174.185
2675.15	140.808
2674.48	166.721
2673.8	159.286
2673.13	174.075
2672.45	144.423
2671.78	174.021
2671.1	173.993
2670.42	162.862
2669.75	148.033
2669.07	148.009
2668.4	122.089
2667.72	118.37
2667.05	125.749
2666.37	151.614
2665.69	162.682
2665.02	158.96
2664.34	162.631
2663.66	169.996
2662.99	147.8
2662.31	151.471
2661.63	147.753
2660.96	147.73
2660.28	147.707
2659.6	166.144
2658.93	177.192
2658.25	169.782
2657.57	180.826
2656.89	169.729
2656.22	177.08
2655.54	162.298
2654.86	151.208
2654.18	140.122
2653.5	151.161
2652.83	140.078
2652.15	147.427
2651.47	180.57
2650.79	165.803
2650.11	154.725
2649.43	132.601
2648.76	158.359
2648.08	132.559
2647.4	150.946
2646.72	169.328
2646.04	154.579
2645.36	154.555
2644.68	139.813
2644	176.578
2643.32	143.447
2642.64	176.522
2641.96	158.11
2641.28	165.438
2640.6	176.439
2639.92	172.736
2639.24	176.383
2638.56	146.963
2637.88	150.613
2637.2	143.243
2636.52	157.91
2635.84	157.885
2635.16	179.887
2634.47	150.494
2633.79	154.14
2633.11	165.124
2632.43	146.754
2631.75	135.726
2631.07	132.037
2630.39	157.686
2629.7	146.661
2629.02	153.97
2628.34	135.619
2627.66	131.933
2626.98	146.569
2626.29	186.846
2625.61	164.838
2624.93	153.824
2624.25	194.081
2623.56	186.727
2622.88	168.394
2622.2	153.727
2621.51	161.022
2620.83	168.314
2620.15	186.58
2619.46	157.288
2618.78	135.319
2618.1	153.581
2617.41	157.213
2616.73	157.188
2616.04	186.403
2615.36	168.102
2614.68	164.421
2613.99	164.395
2613.31	189.938
2612.62	164.343
2611.94	135.105
2611.25	146.037
2610.57	146.013
2609.88	113.143
2609.2	164.213
2608.51	149.593
2607.83	149.569
2607.14	145.898
2606.46	145.875
2605.77	182.315
2605.09	156.766
2604.4	164.031
2603.71	134.849
2603.03	153.047
2602.34	193.101
2601.66	156.642
2600.97	167.544
2600.28	156.592
2599.6	156.567
2598.91	152.902
2598.22	156.518
2597.54	160.132
2596.85	152.829
2596.16	152.805
2595.47	130.955
2594.79	149.12
2594.1	145.46
2593.41	127.257
2592.72	156.32
2592.04	145.39
2591.35	138.099
2590.66	130.81
2589.97	156.22
2589.28	138.033
2588.6	196.122
2587.91	188.828
2587.22	159.752
2586.53	156.097
2585.84	188.738
2585.15	152.418
2584.46	152.394
2583.77	177.765
2583.09	155.973
2582.4	130.561
2581.71	148.671
2581.02	184.903
2580.33	144.999
2579.64	126.854
2578.95	155.825
2578.26	141.307
2577.57	123.171
2576.88	159.373
2576.19	144.861
2575.5	162.943
2574.81	152.056
2574.12	159.271
2573.42	159.246
2572.73	180.933
2572.04	148.341
2571.35	177.258
2570.66	133.827
2569.97	166.353
2569.28	155.479
2568.59	180.761
2567.89	187.961
2567.2	166.247
2566.51	144.54
2565.82	166.194
2565.13	133.657
2564.43	180.588
2563.74	137.225
2563.05	144.425
2562.36	155.232
2561.66	122.722
2560.97	126.312
2560.28	137.116
2559.59	147.918
2558.89	155.109
2558.2	165.904
2557.51	126.211
2556.81	162.246
2556.12	173.035
2555.43	147.777
2554.73	133.339
2554.04	151.333
2553.34	183.732
2552.65	169.295
2551.96	172.87
2551.26	151.237
2550.57	133.211
2549.87	125.991
2549.18	176.359
2548.48	136.746
2547.79	125.931
2547.09	169.08
2546.4	147.472
2545.7	154.641
2545.01	154.616
2544.31	154.592
2543.62	133
2542.92	158.137
2542.23	132.957
2541.53	172.458
2540.83	208.353
2540.14	175.995
2539.44	179.558
2538.75	150.805
2538.05	147.191
2537.35	157.935
2536.66	215.332
2535.96	139.944
2535.26	143.509
2534.57	147.073
2533.87	164.983
2533.17	136.269
2532.48	179.272
2531.78	164.904
2531.08	157.709
2530.38	168.435
2529.68	154.076
2528.99	168.382
2528.29	189.847
2527.59	146.839
2526.89	143.235
2526.19	157.534
2525.5	121.711
2524.8	132.429
2524.1	161.037
2523.4	114.497
2522.7	153.831
2522	153.806
2521.3	125.171
2520.6	139.454
2519.91	139.432
2519.21	150.134
2518.51	135.813
2517.81	150.086
2517.11	150.062
2516.41	153.61
2515.71	164.301
2515.01	153.561
2514.31	164.249
2513.61	171.362
2512.91	185.613
2512.21	192.721
2511.51	149.87
2510.8	146.279
2510.1	206.898
2509.4	146.232
2508.7	213.964
2508	199.668
2507.3	178.247
2506.6	149.703
2505.9	142.552
2505.19	192.414
2504.49	228.01
2503.79	167.418
2503.09	156.707
2502.39	156.682
2501.69	178.019
2500.98	160.192
2500.28	174.403
2499.58	145.906
2498.88	170.789
2498.17	163.647
2497.47	170.735
2496.77	170.707
2496.06	199.127
2495.36	156.432
2494.66	170.626
2493.95	152.828
2493.25	181.232
2492.55	149.226
2491.84	156.307
2491.14	156.282
2490.44	142.052
2489.73	202.392
2489.03	152.657
2488.32	188.129
2487.62	188.099
2486.91	177.423
2486.21	166.751
2485.5	177.366
2484.8	159.604
2484.09	198.587
2483.39	191.464
2482.68	205.613
2481.98	159.502
2481.27	184.284
2480.57	187.798
2479.86	187.768
2479.16	145.231
2478.45	191.25
2477.74	191.219
2477.04	166.405
2476.33	155.758
2475.63	173.43
2474.92	173.403
2474.21	159.222
2473.51	173.347
2472.8	173.319
2472.09	190.975
2471.39	180.336
2470.68	148.488
2469.97	180.278
2469.26	190.852
2468.56	194.356
2467.85	166.059
2467.14	176.63
2466.43	173.07
2465.73	176.574
2465.02	187.138
2464.31	190.639
2463.6	158.84
2462.89	211.753
2462.18	183.49
2461.48	162.292
2460.77	176.376
2460.06	179.875
2459.35	162.214
2458.64	197.446
2457.93	183.314
2457.22	179.76
2456.51	207.924
2455.8	147.99
2455.09	179.673
2454.38	147.942
2453.67	200.747
2452.96	200.715
2452.25	193.641
2451.54	161.928
2450.83	147.824
2450.12	197.067
2449.41	179.443
2448.7	182.932
2447.99	172.351
2447.28	207.491
2446.57	196.909
2445.86	168.752
2445.15	186.301
2444.43	214.387
2443.72	179.213
2443.01	203.778
2442.3	172.13
2441.59	189.664
2440.88	165.051
2440.16	189.603
2439.45	179.041
2438.74	200.072
2438.03	231.625
2437.32	185.972
2436.6	185.943
2435.89	210.467
2435.18	178.868
2434.46	185.853
2433.75	199.848
2433.04	199.816
2432.32	182.259
2431.61	185.734
2430.9	185.704
2430.18	171.661
2429.47	171.633
2428.76	189.117
2428.04	192.588
2427.33	199.559
2426.61	171.523
2425.9	195.995
2425.19	199.463
2424.47	160.944
2423.76	167.915
2423.04	178.381
2422.33	237.803
2421.61	188.813
2420.9	206.263
2420.18	195.743
2419.47	188.722
2418.75	178.209
2418.04	181.674
2417.32	199.111
2416.6	192.094
2415.89	199.047
2415.17	195.523
2414.46	171.056
2413.74	191.97
2413.02	195.429
2412.31	188.419
2411.59	174.434
2410.87	198.823
2410.16	198.791
2409.44	156.915
2408.72	202.214
2408.01	170.808
2407.29	188.207
2406.57	188.177
2405.85	160.273
2405.14	167.215
2404.42	195.052
2403.7	174.126
2402.98	215.881
2402.26	194.958
2401.55	187.965
2400.83	201.856
2400.11	212.263
2399.39	212.229
2398.67	173.93
2397.95	208.682
2397.23	180.829
2396.51	152.984
2395.8	173.818
2395.08	152.935
2394.36	170.287
2393.64	159.835
2392.92	173.706
2392.2	170.205
2391.48	156.285
2390.76	222.237
2390.04	180.538
2389.32	208.28
2388.6	194.363
2387.88	229.034
2387.16	215.118
2386.44	197.738
2385.72	190.769
2384.99	204.61
2384.27	180.306
2383.55	187.21
2382.83	187.18
2382.11	180.218
2381.39	211.376
2380.67	197.484
2379.95	169.739
2379.22	176.639
2378.5	193.925
2377.78	225.055
2377.06	190.401
2376.33	211.138
2375.61	221.486
2374.89	214.53
2374.17	217.955
2373.44	186.788
2372.72	217.885
2372	217.849
2371.28	224.729
2370.55	231.606
2369.83	217.744
2369.11	221.165
2368.38	200.398
2367.66	207.275
2366.93	207.242
2366.21	169.22
2365.49	193.363
2364.76	203.689
2364.04	245.078
2363.31	224.331
2362.59	172.534
2361.86	217.358
2361.14	196.625
2360.42	217.288
2359.69	206.907
2358.97	206.874
2358.24	189.604
2357.51	206.807
2356.79	196.435
2356.06	227.414
2355.34	227.378
2354.61	213.563
2353.89	206.64
2353.16	210.05
2352.43	216.902
2351.71	216.867
2350.98	220.274
2350.26	223.68
2349.53	206.44
2348.8	220.167
2348.07	202.934
2347.35	202.901
2346.62	213.184
2345.89	226.901
2345.17	202.803
2344.44	189.023
2343.71	237.099
2342.98	202.704
2342.26	230.153
2341.53	233.55
2340.8	212.908
2340.07	243.775
2339.34	195.675
2338.62	223.102
2337.89	185.316
2337.16	226.461
2336.43	233.286
2335.7	233.248
2334.97	198.915
2334.24	202.312
2333.51	198.85
2332.78	236.525
2332.05	243.342
2331.33	294.704
2330.6	274.099
2329.87	222.669
2329.14	219.208
2328.41	249.994
2327.68	249.953
2326.95	208.831
2326.22	246.45
2325.48	219.031
2324.75	232.683
2324.02	184.748
2323.29	229.187
2322.56	194.948
2321.83	222.273
2321.1	239.332
2320.37	235.875
2319.64	174.314
2318.9	208.46
2318.17	211.843
2317.44	184.478
2316.71	225.437
2315.98	211.74
2315.25	201.462
2314.51	266.296
2313.78	225.291
2313.05	197.951
2312.32	228.631
2311.58	191.063
2310.85	211.5
2310.12	187.591
2309.38	214.842
2308.65	214.807
2307.92	242.045
2307.18	245.414
2306.45	221.518
2305.72	180.593
2304.98	190.785
2304.25	224.817
2303.51	234.998
2302.78	241.77
2302.05	238.326
2301.31	248.5
2300.58	221.231
2299.84	217.792
2299.11	241.574
2298.37	221.124
2297.64	210.884
2296.9	231.254
2296.17	193.814
2295.43	220.98
2294.7	231.142
2293.96	224.307
2293.23	234.465
2292.49	210.644
2291.75	210.61
2291.02	230.954
2290.28	213.938
2289.55	207.112
2288.81	217.263
2288.07	230.804
2287.34	230.767
2286.6	220.55
2285.86	213.729
2285.12	234.047
2284.39	206.877
2283.65	267.879
2282.91	254.275
2282.18	199.997
2281.44	250.803
2280.7	237.207
2279.96	233.781
2279.22	233.743
2278.49	257.414
2277.75	274.304
2277.01	233.629
2276.27	267.445
2275.53	216.629
2274.79	233.515
2274.05	230.093
2273.32	240.205
2272.58	216.488
2271.84	229.981
2271.1	233.325
2270.36	256.954
2269.62	226.489
2268.88	212.932
2268.14	250.07
2267.4	277.06
2266.66	246.611
2265.92	212.794
2265.18	256.662
2264.44	232.984
2263.7	249.826
2262.96	259.912
2262.22	242.995
2261.48	209.212
2260.74	226.047
2259.99	236.13
2259.25	222.601
2258.51	205.704
2257.77	192.184
2257.03	239.348
2256.29	239.309
2255.55	232.53
2254.8	252.709
2254.06	222.347
2253.32	218.943
2252.58	249.217
2251.83	259.279
2251.09	252.503
2250.35	252.462
2249.61	218.765
2248.86	195.174
2248.12	235.516
2247.38	232.114
2246.63	248.893
2245.89	232.038
2245.15	252.174
2244.4	242.048
2243.66	275.621
2242.92	272.215
2242.17	268.811
2241.43	245.25
2240.68	278.8
2239.94	248.528
2239.19	241.772
2238.45	208.159
2237.7	275.262
2236.96	271.86
2236.21	251.682
2235.47	268.417
2234.72	221.408
2233.98	251.559
2233.23	221.335
2232.49	234.711
2231.74	231.321
2231	244.691
2230.25	274.813
2229.5	258.014
2228.76	264.673
2228.01	237.832
2227.27	264.586
2226.52	234.405
2225.77	254.456
2225.03	271.152
2224.28	251.026
2223.53	247.638
2222.78	294.441
2222.04	267.63
2221.29	250.862
2220.54	244.132
2219.79	234.061
2219.05	207.278
2218.3	237.328
2217.55	260.684
2216.8	260.641
2216.05	260.599
2215.31	243.854
2214.56	257.174
2213.81	237.095
2213.06	277.123
2212.31	297.107
2211.56	246.992
2210.81	243.615
2210.06	260.258
2209.31	320.266
2208.56	283.522
2207.81	246.791
2207.07	290.098
2206.32	263.38
2205.57	256.67
2204.82	253.295
2204.06	253.254
2203.31	243.217
2202.56	246.509
2201.81	279.775
2201.06	266.409
2200.31	259.706
2199.56	259.664
2198.81	272.935
2198.06	286.202
2197.31	262.864
2196.56	299.416
2195.8	299.367
2195.05	226.151
2194.3	262.692
2193.55	269.298
2192.8	282.551
2192.04	252.592
2191.29	265.843
2190.54	249.187
2189.79	275.722
2189.03	288.962
2188.28	312.161
2187.53	305.47
2186.78	245.664
2186.02	298.731
2185.27	295.364
2184.52	298.633
2183.76	281.996
2183.01	232.194
2182.25	275.271
2181.5	308.386
2180.75	255.288
2179.99	295.025
2179.24	251.89
2178.48	278.36
2177.73	261.748
2176.97	314.708
2176.22	281.535
2175.46	251.684
2174.71	271.51
2173.95	254.912
2173.2	268.111
2172.44	258.138
2171.69	268.023
2170.93	287.829
2170.18	301.013
2169.42	264.584
2168.67	267.847
2167.91	294.253
2167.15	277.677
2166.4	284.241
2165.64	300.718
2164.88	257.716
2164.13	287.405
2163.37	293.964
2162.61	257.589
2161.86	280.66
2161.1	277.313
2160.34	300.373
2159.58	260.72
2158.83	320.073
2158.07	313.422
2157.31	283.683
2156.55	329.809
2155.79	296.78
2155.04	270.355
2154.28	267.014
2153.52	286.746
2152.76	270.222
2152	240.524
2151.24	322.842
2150.48	306.32
2149.72	250.285
2148.96	266.708
2148.21	269.956
2147.45	299.536
2146.69	312.651
2145.93	279.695
2145.17	286.229
2144.41	289.471
2143.65	226.934
2142.89	322.26
2142.13	292.616
2141.37	279.419
2140.6	282.66
2139.84	246.465
2139.08	269.425
2138.32	295.661
2137.56	275.905
2136.8	325.121
2136.04	302.083
2135.28	285.618
2134.52	311.831
2133.75	282.243
2132.99	298.603
2132.23	318.239
2131.47	308.346
2130.71	295.176
2129.94	314.803
2129.18	255.735
2128.42	298.309
2127.65	275.317
2126.89	281.825
2126.13	307.991
2125.37	314.492
2124.6	291.513
2123.84	275.09
2123.08	343.806
2122.31	317.559
2121.55	291.321
2120.78	314.182
2120.02	271.592
2119.26	307.535
2118.49	294.4
2117.73	284.54
2116.96	294.304
2116.2	333.489
2115.43	323.627
2114.67	268.011
2113.9	323.521
2113.14	310.398
2112.37	316.881
2111.61	258.036
2110.84	287.385
2110.08	329.785
2109.31	306.878
2108.55	287.243
2107.78	296.986
2107.01	336.094
2106.25	345.826
2105.48	313.15
2104.71	280.484
2103.95	300.003
2103.18	322.776
2102.41	306.424
2101.65	303.114
2100.88	306.323
2100.11	316.047
2099.34	325.768
2098.58	276.857
2097.81	348.457
2097.04	341.887
2096.27	341.831
2095.51	341.775
2094.74	338.464
2093.97	331.9
2093.2	338.352
2092.43	305.768
2091.66	328.484
2090.89	344.689
2090.13	312.119
2089.36	331.572
2088.59	354.269
2087.82	344.461
2087.05	318.412
2086.28	341.099
2085.51	302.067
2084.74	298.769
2083.97	347.424
2083.2	344.121
2082.43	334.326
2081.66	324.535
2080.89	347.195
2080.12	301.718
2079.35	337.349
2078.58	340.537
2077.81	346.966
2077.03	356.635
2076.26	320.919
2075.49	337.071
2074.72	333.775
2073.95	301.32
2073.18	343.383
2072.4	327.132
2071.63	359.462
2070.86	346.451
2070.09	346.394
2069.32	301.021
2068.54	359.224
2067.77	333.279
2067	368.811
2066.23	352.577
2065.45	371.923
2064.68	358.928
2063.91	368.568
2063.13	349.112
2062.36	384.606
2061.59	355.459
2060.81	390.94
2060.04	384.415
2059.26	352.053
2058.49	332.619
2057.72	326.107
2056.94	345.422
2056.17	342.137
2055.39	351.762
2054.62	374.291
2053.84	393.585
2053.07	399.971
2052.29	387.005
2051.52	367.594
2050.74	354.637
2049.97	335.238
2049.19	373.858
2048.41	412.464
2047.64	351.181
2046.86	409.106
2046.09	370.389
2045.31	357.447
2044.53	396.025
2043.76	395.959
2042.98	341.177
2042.2	337.902
2041.43	386.11
2040.65	363.527
2039.87	402.065
2039.09	389.134
2038.32	382.639
2037.54	430.799
2036.76	462.872
2035.98	385.663
2035.21	411.305
2034.43	404.812
2033.65	391.896
2032.87	388.619
2032.09	391.766
2031.31	414.176
2030.53	420.527
2029.76	385.152
2028.98	433.224
2028.2	452.404
2027.42	439.497
2026.64	423.386
2025.86	439.351
2025.08	420.04
2024.3	455.235
2023.52	391.052
2022.74	416.626
2021.96	448.6
2021.18	445.322
2020.4	393.996
2019.62	416.35
2018.84	454.707
2018.06	429.018
2017.28	460.958
2016.49	435.277
2015.71	451.205
2014.93	390.34
2014.15	428.663
2013.37	418.996
2012.59	470.093
2011.8	441.239
2011.02	473.134
2010.24	514.608
2009.46	469.782
2008.68	476.094
2007.89	491.989
2007.11	459.965
2006.33	501.407
2005.55	504.517
2004.76	459.736
2003.98	462.852
2003.2	450.009
2002.41	504.182
2001.63	433.907
2000.84	452.975
2000.06	465.657
1999.28	462.391
1998.49	529.27
1997.71	468.613
1996.92	449.412
1996.14	490.765
1995.36	503.429
1994.57	496.974
1993.79	503.261
1993	538.209
1992.22	503.094
1991.43	528.48
1990.64	537.941
1989.86	528.304
1989.07	490.032
1988.29	496.313
1987.5	534.403
1986.72	527.953
1985.93	521.505
1985.14	483.266
1984.36	527.69
1983.57	527.602
1982.78	568.826
1982	552.845
1981.21	552.753
1980.42	578.07
1979.64	603.38
1978.85	568.353
1978.06	542.861
1977.27	558.641
1976.49	577.59
1975.7	602.878
1974.91	615.468
1974.12	580.474
1973.33	605.749
1972.54	577.11
1971.76	592.866
1970.97	624.466
1970.18	614.854
1969.39	576.726
1968.6	646.332
1967.81	567.03
1967.02	595.441
1966.23	630.176
1965.44	598.409
1964.65	652.126
1963.86	623.531
1963.07	648.744
1962.28	629.651
1961.49	610.565
1960.7	613.626
1959.91	676.774
1959.12	600.774
1958.33	641.773
1957.54	622.7
1956.75	676.323
1955.96	644.612
1955.17	657.142
1954.37	675.985
1953.58	675.873
1952.79	682.076
1952	663.018
1951.21	694.475
1950.42	681.735
1949.62	678.465
1948.83	690.973
1948.04	719.249
1947.25	703.359
1946.45	703.241
1945.66	681.053
1944.87	718.769
1944.07	712.346
1943.28	699.621
1942.49	743.617
1941.69	693.087
1940.9	755.969
1940.11	692.856
1939.31	667.549
1938.52	705.218
1937.72	746.021
1936.93	764.78
1936.14	748.919
1935.34	720.478
1934.55	742.377
1933.75	754.834
1932.96	732.696
1932.16	707.421
1931.37	726.164
1930.57	697.755
1929.77	763.632
1928.98	728.942
1928.18	785.367
1927.39	819.786
1926.59	791.386
1925.79	775.554
1925	744.031
1924.2	812.961
1923.41	800.272
1922.61	828.379
1921.81	759.22
1921.01	793.598
1920.22	909.505
1919.42	812.147
1918.62	818.281
1917.83	767.99
1917.03	830.544
1916.23	795.936
1915.43	830.267
1914.63	770.609
1913.84	761.085
1913.04	776.615
1912.24	839.105
1911.44	857.747
1910.64	813.785
1909.84	860.59
1909.04	854.188
1908.24	810.248
1907.45	872.67
1906.65	869.396
1905.85	847.363
1905.05	887.863
1904.25	884.589
1903.45	912.568
1902.65	878.044
1901.85	887.269
1901.05	887.121
1900.25	958.805
1899.45	871.211
1898.64	999.071
1897.84	811.609
1897.04	955.042
1896.24	945.52
1895.44	942.242
1894.64	926.487
1893.84	957.521
1893.04	960.48
1892.23	988.38
1891.43	894.693
1890.63	984.932
1889.83	909.975
1889.03	903.591
1888.22	931.477
1887.42	965.584
1886.62	875.108
1885.81	1061.79
1885.01	999.344
1884.21	1036.53
1883.4	992.785
1882.6	989.507
1881.8	1039.12
1880.99	998.507
1880.19	951.688
1879.39	998.172
1878.58	926.497
1877.78	972.969
1876.97	1013.21
1876.17	997.503
1875.36	1025.3
1874.56	956.785
1873.75	978.366
1872.95	1065.15
1872.14	1074.29
1871.34	1015.13
1870.53	1036.68
1869.73	1104.78
1868.92	1030.13
1868.12	1070.29
1867.31	1026.68
1866.5	1054.42
1865.7	1103.86
1864.89	1057.17
1864.09	1081.79
1863.28	1013.42
1862.47	1059.73
1861.66	1071.95
1860.86	1071.77
1860.05	1149.02
1859.24	1127.15
1858.44	1046.46
1857.63	1129.86
1856.82	1160.62
1856.01	1067.59
1855.2	1113.83
1854.4	1076.52
1853.59	1107.27
1852.78	1082.34
1851.97	1144
1851.16	1072.7
1850.35	1128.16
1849.54	1152.69
1848.74	1211.2
1847.93	1065.8
1847.12	1047.09
1846.31	1114.86
1845.5	1170.25
1844.69	1157.7
1843.88	1126.64
1843.07	1231.38
1842.26	1218.83
1841.45	1215.54
1840.64	1196.83
1839.83	1156.54
1839.02	1313.6
1838.2	1211.64
1837.39	1125.13
1836.58	1146.51
1835.77	1195.62
1834.96	1180.02
1834.15	1213.7
1833.34	1164.22
1832.52	1200.98
1831.71	1246.96
1830.9	1209.81
1830.09	1144.97
1829.28	1227.87
1828.46	1249.2
1827.65	1230.53
1826.84	1316.44
1826.02	1230.12
1825.21	1223.76
1824.4	1232.78
1823.59	1201.83
1822.77	1303.04
1821.96	1269.03
1821.14	1360.98
1820.33	1204.09
1819.52	1292.95
1818.7	1314.23
1817.89	1298.66
1817.07	1273.88
1816.26	1292.08
1815.44	1215.15
1814.63	1319.26
1813.81	1337.44
1813	1257.48
1812.18	1355.39
1811.37	1355.16
1810.55	1275.23
1809.74	1333.25
1808.92	1348.35
1808.11	1250.08
1807.29	1246.8
1806.47	1390.55
1805.66	1347.44
1804.84	1261.48
1804.02	1316.37
1803.21	1313.09
1802.39	1355.71
1801.57	1337.13
1800.76	1321.6
1799.94	1263.26
1799.12	1342.57
1798.3	1366.8
1797.49	1369.63
1796.67	1387.74
1795.85	1363.05
1795.03	1381.16
1794.21	1435.92
1793.4	1359.31
1792.58	1365.19
1791.76	1316.1
1790.94	1410.52
1790.12	1498.81
1789.3	1406.99
1788.48	1376.24
1787.66	1388.21
1786.84	1375.78
1786.02	1433.49
1785.2	1445.45
1784.38	1490.94
1783.56	1441.91
1782.74	1383.76
1781.92	1490.19
1781.1	1432.04
1780.28	1468.36
1779.46	1455.93
1778.64	1403.91
1777.82	1418.9
1777	1449.1
1776.18	1391.02
1775.35	1439.48
1774.53	1424.02
1773.71	1375.11
1772.89	1450.92
1772.07	1496.29
1771.25	1526.45
1770.42	1507.95
1769.6	1510.73
1768.78	1458.81
1767.96	1479.83
1767.13	1509.96
1766.31	1524.9
1765.49	1427.45
1764.66	1424.17
1763.84	1639.5
1763.02	1596.72
1762.19	1541.82
1761.37	1532.45
1760.54	1614.11
1759.72	1541.04
1758.9	1574.14
1758.07	1616.33
1757.25	1588.77
1756.42	1573.34
1755.6	1645.82
1754.77	1612.2
1753.95	1627.08
1753.12	1678.31
1752.3	1626.53
1751.47	1577.8
1750.65	1622.95
1749.82	1659.01
1748.99	1589.11
1748.17	1658.44
1747.34	1549.23
1746.52	1754.69
1745.69	1690.87
1744.86	1639.17
1744.04	1699.37
1743.21	1596.29
1742.38	1620.21
1741.55	1722.69
1740.73	1731.46
1739.9	1749.29
1739.07	1691.6
1738.24	1658.1
1737.42	1748.41
1736.59	1669.61
1735.76	1756.87
1734.93	1681.12
1734.1	1698.94
1733.27	1816.32
1732.45	1767.74
1731.62	1782.53
1730.79	1809.36
1729.96	1754.79
1729.13	1820.81
1728.3	1814.47
1727.47	1778
1726.64	1753.6
1725.81	1762.34
1724.98	1710.83
1724.15	1867.14
1723.32	1839.72
1722.49	1791.24
1721.66	1821.04
1720.83	1805.68
1720	1832.46
1719.17	1817.11
1718.34	1873.95
1717.5	1765.36
1716.67	1831.21
1715.84	1879.01
1715.01	1878.69
1714.18	1872.36
1713.35	1881.05
1712.51	1898.76
1711.68	1916.46
1710.85	1850.06
1710.02	1969.86
1709.18	1921.49
1708.35	1954.18
1707.52	1899.83
1706.68	1980.53
1705.85	1971.19
1705.02	1964.86
1704.18	1937.53
1703.35	1937.2
1702.52	1966.85
1701.68	1939.54
1700.85	1990.16
1700.01	2022.79
1699.18	2049.41
1698.35	1929.23
1697.51	2042.72
1696.68	1961.52
1695.84	2065.98
1695.01	2104.55
1694.17	2098.2
1693.34	2154.71
1692.5	2088.51
1691.66	2115.08
1690.83	2177.54
1689.99	2201.09
1689.16	2078.12
1688.32	2182.41
1687.48	2086.38
1686.65	2208.56
1685.81	2229.1
1684.97	2246.65
1684.14	2243.28
1683.3	2257.83
1682.46	2347.03
1681.63	2286.92
1680.79	2140.26
1679.95	2318.97
1679.11	2264.86
1678.27	2383.81
1677.44	2281.99
1676.6	2284.58
1675.76	2328.92
1674.92	2337.47
1674.08	2363.9
1673.24	2461.85
1672.41	2360.11
1671.57	2410.36
1670.73	2341.44
1669.89	2436.35
1669.05	2298.95
1668.21	2378.95
1667.37	2420.22
1666.53	2413.85
1665.69	2556.28
1664.85	2427.91
1664.01	2368
1663.17	2483.59
1662.33	2468.3
1661.49	2432.2
1660.64	2351.52
1659.8	2389.76
1658.96	2416.1
1658.12	2487
1657.28	2400.42
1656.44	2447.53
1655.6	2453.06
1654.75	2497.18
1653.91	2470.03
1653.07	2336.04
1652.23	2481.06
1651.38	2430.19
1650.54	2420.88
1649.7	2381.9
1648.86	2301.42
1648.01	2360.33
1647.17	2383.65
1646.33	2424.74
1645.48	2397.65
1644.64	2415.02
1643.8	2476.83
1642.95	2387.54
1642.11	2431.56
1641.26	2348.23
1640.42	2442.57
1639.57	2510.24
1638.73	2495.01
1637.88	2450.2
1637.04	2322.56
1636.19	2342.87
1635.35	2351.34
1634.5	2368.68
1633.66	2391.93
1632.81	2193.46
1631.97	2361.56
1631.12	2411.39
1630.28	2440.52
1629.43	2271.72
1628.58	2280.19
1627.74	2356.59
1626.89	2320.75
1626.04	2267.22
1625.2	2240.26
1624.35	2233.98
1623.5	2304.41
1622.65	2221.42
1621.81	2318.37
1620.96	2270.79
1620.11	2276.3
1619.26	2393.83
1618.41	2240.15
1617.57	2325.23
1616.72	2233.49
1615.87	2294.97
1615.02	2318.15
1614.17	2214.67
1613.32	2252.57
1612.47	2219.8
1611.62	2322.45
1610.77	2324.99
1609.92	2348.14
1609.07	2268.3
1608.22	2335.57
1607.37	2305.76
1606.52	2287.72
1605.67	2299.09
1604.82	2345.72
1603.97	2348.26
1603.12	2297.91
1602.27	2285.76
1601.42	2376.43
1600.57	2396.58
1599.72	2284.59
1598.87	2231.35
1598.01	2263.25
1597.16	2356.79
1596.31	2382.79
1595.46	2332.51
1594.61	2232.37
1593.75	2305.31
1592.9	2375.29
1592.05	2325.04
1591.2	2433.11
1590.34	2289.08
1589.49	2215.42
1588.64	2338.1
1587.78	2431.44
1586.93	2360.73
1586.08	2240.26
1585.22	2292.58
1584.37	2380.01
1583.51	2288.87
1582.66	2440.65
1581.81	2331.97
1580.95	2357.9
1580.1	2386.74
1579.24	2360.01
1578.39	2450.25
1577.53	2362.13
1576.68	2338.34
1575.82	2451.91
1574.96	2284.94
1574.11	2380.96
1573.25	2319.21
1572.4	2353.86
1571.54	2344.69
1570.68	2417.27
1569.83	2378.91
1568.97	2393.1
1568.11	2404.36
1567.26	2465.21
1566.4	2351.03
1565.54	2356.46
1564.69	2414.37
1563.83	2446.02
1562.97	2407.71
1562.11	2357.75
1561.26	2369
1560.4	2505.53
1559.54	2371.1
1558.68	2324.1
1557.82	2515.88
1556.96	2369.88
1556.1	2500.46
1555.25	2529.14
1554.39	2519.97
1553.53	2510.81
1552.67	2530.74
1551.81	2469.23
1550.95	2541.5
1550.09	2442.22
1549.23	2497.03
1548.37	2514.04
1547.51	2516.51
1546.65	2507.36
1545.79	2486.59
1544.93	2497.78
1544.07	2575.76
1543.2	2601.45
1542.34	2496.5
1541.48	2522.19
1540.62	2478.23
1539.76	2544.53
1538.9	2546.99
1538.03	2453.74
1537.17	2482.32
1536.31	2621.06
1535.45	2458.27
1534.59	2391.19
1533.72	2668.97
1532.86	2575.8
1532	2575.35
1531.13	2722.63
1530.27	2722.16
1529.41	2600.08
1528.54	2608.32
1527.68	2549.98
1526.82	2613.21
1525.95	2580.93
1525.09	2505.27
1524.22	2562.69
1523.36	2628.76
1522.49	2573.37
1521.63	2645.2
1520.76	2624.51
1519.9	2612.5
1519.03	2730.52
1518.17	2646.27
1517.3	2668.92
1516.44	2708.89
1515.57	2621.8
1514.71	2702.18
1513.84	2626.67
1512.97	2692.59
1512.11	2695.01
1511.24	2541.65
1510.37	2717.16
1509.51	2682.08
1508.64	2678.74
1507.77	2675.39
1506.91	2689.34
1506.04	2688.88
1505.17	2691.3
1504.3	2696.59
1503.43	2690.37
1502.57	2643.82
1501.7	2666.4
1500.83	2706.25
1499.96	2748.96
1499.09	2829.07
1498.22	2730.74
1497.35	2810.83
1496.49	2692.41
1495.62	2714.95
1494.75	2829.5
1493.88	2794.51
1493.01	2802.65
1492.14	2914.26
1491.27	2816.05
1490.4	2898.89
1489.53	2961.58
1488.66	2834.7
1487.79	2914.61
1486.92	2894.01
1486.04	2942.31
1485.17	2887.27
1484.3	2998.69
1483.43	2995.3
1482.56	3089.44
1481.69	3005.74
1480.82	3039.63
1479.94	3050.57
1479.07	3176.17
1478.2	3195.68
1477.33	3157.88
1476.45	3254.75
1475.58	3191.16
1474.71	3256.49
1473.84	3336.1
1472.96	3424.28
1472.09	3472.35
1471.22	3391.61
1470.34	3428.23
1469.47	3573.55
1468.59	3647.31
1467.72	3706.74
1466.85	3714.68
1465.97	3819.83
1465.1	3944.95
1464.22	4095.75
1463.35	3892.14
1462.47	4065.76
1461.6	4010.78
1460.72	4127.19
1459.85	4152.17
1458.97	4265.66
1458.1	4330.58
1457.22	4329.83
1456.34	4446.08
1455.47	4382.54
1454.59	4398.9
1453.71	4463.74
1452.84	4388.82
1451.96	4579.09
1451.08	4501.33
1450.21	4645.91
1449.33	4502.62
1448.45	4473.35
1447.58	4572.28
1446.7	4520.22
1445.82	4567.85
1444.94	4606.92
1444.06	4685.83
1443.18	4679.32
1442.31	4587.45
1441.43	4899.64
1440.55	4816.29
1439.67	4769.94
1438.79	4760.58
1437.91	4808.09
1437.03	4719.13
1436.15	4635.89
1435.27	4674.87
1434.39	4495.05
1433.51	4363.59
1432.63	4186.73
1431.75	4188.84
1430.87	4159.72
1429.99	3929.05
1429.11	3948.24
1428.23	3675.11
1427.35	3830.53
1426.47	3730.57
1425.59	3786.65
1424.7	3732.11
1423.82	3705.95
1422.94	3753.5
1422.06	3662.14
1421.18	3573.65
1420.29	3564.53
1419.41	3657.4
1418.53	3704.92
1417.65	3616.48
1416.76	3564.89
1415.88	3609.56
1415	3501.38
1414.11	3543.22
1413.23	3562.41
1412.35	3677.78
1411.46	3643.2
1410.58	3554.9
1409.7	3452.49
1408.81	3550.84
1407.93	3459.77
1407.04	3368.73
1406.16	3571.59
1405.27	3508.81
1404.39	3547.75
1403.5	3476.53
1402.62	3495.69
1401.73	3627.77
1400.85	3604.56
1399.96	3493.87
1399.07	3493.26
1398.19	3424.94
1397.3	3613.33
1396.41	3502.72
1395.53	3524.67
1394.64	3540.97
1393.75	3602.36
1392.87	3551.01
1391.98	3634.92
1391.09	3763.89
1390.2	3715.35
1389.32	3652.74
1388.43	3609.87
1387.54	3673.99
1386.65	3673.35
1385.76	3830.31
1384.88	3711.47
1383.99	3837.42
1383.1	3912.7
1382.21	3962.64
1381.32	3961.95
1380.43	3902.22
1379.54	3921.22
1378.65	3909.29
1377.76	3995.72
1376.87	4082.12
1375.98	3949.38
1375.09	4066.65
1374.2	4141.76
1373.31	4093.31
1372.42	4151.54
1371.53	4136.79
1370.64	4155.71
1369.75	4152.18
1368.86	4129.01
1367.97	4170.36
1367.07	4248.15
1366.18	4194.14
1365.29	4176.59
1364.4	4206.69
1363.51	4264.8
1362.61	4194.02
1361.72	4196.09
1360.83	4139.34
1359.94	4200.22
1359.04	4115.5
1358.15	4064.4
1357.26	4035.7
1356.36	3920.27
1355.47	4190.96
1354.58	4078.34
1353.68	4105.6
1352.79	4132.84
1351.89	4112.55
1351	4173.33
1350.11	4041.25
1349.21	4107.6
1348.32	4157.18
1347.42	4095
1346.53	4144.55
1345.63	4115.9
1344.73	4229.65
1343.84	4248.45
1342.94	4169.57
1342.05	4157.68
1341.15	4131.84
1340.26	4175.75
1339.36	4080.2
1338.46	4132.46
1337.57	4162.41
1336.67	4164.47
1335.77	4085.71
1334.87	4112.86
1333.98	4301.59
1333.08	4250.69
1332.18	4116.27
1331.28	4009.74
1330.39	4148.24
1329.49	3947.1
1328.59	4316.56
1327.69	4126.58
1326.79	4253.84
1325.89	4166.87
1325	4163.36
1324.1	4301.66
1323.2	4256.42
1322.3	4258.46
1321.4	4421.69
1320.5	4223.62
1319.6	4239.55
1318.7	4269.37
1317.8	4271.4
1316.9	4242.88
1316	4330.98
1315.1	4399.62
1314.2	4398.85
1313.29	4386.98
1312.39	4366.79
1311.49	4307.77
1310.59	4362.49
1309.69	4325.68
1308.79	4402.54
1307.89	4468.3
1306.98	4437.03
1306.08	4563.72
1305.18	4490.88
1304.28	4589.82
1303.37	4644.4
1302.47	4707.27
1301.57	4673.23
1300.66	4658.57
1299.76	4743.55
1298.86	4856.16
1297.95	4799.98
1297.05	4718.92
1296.15	4806.59
1295.24	4728.33
1294.34	4702.62
1293.43	4663.1
1292.53	4601.48
1291.62	4666.99
1290.72	4641.3
1289.81	4764.79
1288.91	4689.39
1288	4647.15
1287.1	4530.38
1286.19	4689.68
1285.29	4617.1
1284.38	4641.13
1283.47	4689.97
1282.57	4460.21
1281.66	4302.23
1280.75	4295.96
1279.85	4160.12
1278.94	4200.73
1278.03	4023.62
1277.13	3989.85
1276.22	3796.3
1275.31	3668.93
1274.4	3552.62
1273.5	3551.99
1272.59	3562.38
1271.68	3336.05
1270.77	3302.44
1269.86	3153.28
1268.95	3166.48
1268.04	3105.41
1267.14	3052.61
1266.23	2958.59
1265.32	2886.59
1264.41	2916.32
1263.5	2910.31
1262.59	2890.56
1261.68	2824.12
1260.77	2862.08
1259.86	2891.79
1258.95	2773.21
1258.04	2668.4
1257.13	2695.38
1256.21	2774.49
1255.3	2664.25
1254.39	2754.31
1253.48	2737.37
1252.57	2736.89
1251.66	2687.05
1250.75	2552.25
1249.83	2658.7
1248.92	2688.38
1248.01	2572.82
1247.1	2621.68
1246.18	2610.27
1245.27	2511.22
1244.36	2538.16
1243.44	2545.92
1242.53	2504.42
1241.62	2495.77
1240.7	2555.52
1239.79	2500.36
1238.88	2349.49
1237.96	2376.42
1237.05	2477.17
1236.13	2435.73
1235.22	2416.16
1234.3	2388.41
1233.39	2308.75
1232.47	2354.79
1231.56	2340.72
1230.64	2362.15
1229.73	2268.9
1228.81	2369.51
1227.89	2295.4
1226.98	2240.42
1226.06	2327.33
1225.15	2264.18
1224.23	2220.14
1223.31	2312.46
1222.4	2262.98
1221.48	2281.66
1220.56	2191.32
1219.64	2242.71
1218.73	2220.52
1217.81	2179.26
1216.89	2227.9
1215.97	2235.68
1215.05	2150.88
1214.14	2243.06
1213.22	2090.25
1212.3	2130.7
1211.38	2214.66
1210.46	2230.59
1209.54	2102.37
1208.62	2121.04
1207.7	2112.5
1206.78	2117.57
1205.86	2141.66
1204.94	2133.13
1204.02	2064.83
1203.1	2200.28
1202.18	1950.03
1201.26	2145.2
1200.34	2120.38
1199.42	2101.01
1198.5	2032.79
1197.58	2018.86
1196.66	1977.81
1195.73	1991.02
1194.81	1928.29
1193.89	1955.07
1192.97	1973.7
1192.05	1870.35
1191.12	1991.97
1190.2	1945.56
1189.28	1928.96
1188.35	1928.62
1187.43	2052.85
1186.51	2011.87
1185.59	1987.15
1184.66	1948.91
1183.74	2064.93
1182.81	2015.86
1181.89	1920.82
1180.97	1952.94
1180.04	2025.61
1179.12	2060.41
1178.19	2046.52
1177.27	1946.15
1176.34	2043.1
1175.42	2002.21
1174.49	2107.21
1173.57	2023.11
1172.64	2044.35
1171.71	2030.49
1170.79	2194.81
1169.86	2110.75
1168.94	2148.15
1168.01	2088.41
1167.08	2136.6
1166.16	2122.74
1165.23	2162.81
1164.3	2103.11
1163.37	2129.7
1162.45	2161.66
1161.52	2209.79
1160.59	2171.68
1159.66	2195.54
1158.73	2216.7
1157.81	2127.44
1156.88	2312.84
1155.95	2285.51
1155.02	2263.57
1154.09	2217.42
1153.16	2217.03
1152.23	2200.5
1151.3	2213.56
1150.37	2137.87
1149.44	2210.08
1148.51	2290.34
1147.58	2201.24
1146.65	2216.97
1145.72	2238.07
1144.79	2288.71
1143.86	2207.73
1142.93	2177.8
1142	2231.11
1141.07	2163.61
1140.14	2222.27
1139.2	2278.23
1138.27	2310.02
1137.34	2215.72
1136.41	2231.42
1135.48	2300.74
1134.54	2407.58
1133.61	2396.43
1132.68	2412.08
1131.75	2454.53
1130.81	2555.9
1129.88	2592.95
1128.95	2632.66
1128.01	2594.7
1127.08	2714.72
1126.14	2655.35
1125.21	2574.59
1124.28	2627.65
1123.34	2715.47
1122.41	2581.24
1121.47	2602.18
1120.54	2647.17
1119.6	2587.89
1118.67	2461.8
1117.73	2413.25
1116.8	2492.99
1115.86	2481.86
1114.92	2377.24
1113.99	2523.7
1113.05	2387.08
1112.11	2394.66
1111.18	2332.85
1110.24	2265.72
1109.3	2353.36
1108.37	2275.58
1107.43	2280.51
1106.49	2394.78
1105.55	2290.37
1104.62	2375.27
1103.68	2385.5
1102.74	2430.38
1101.8	2432.61
1100.86	2293.66
1099.93	2453.06
1098.99	2420.66
1098.05	2457.51
1097.11	2355.91
1096.17	2411.39
1095.23	2421.6
1094.29	2580.81
1093.35	2439.36
1092.41	2444.25
1091.47	2358.72
1090.53	2557.7
1089.59	2522.69
1088.65	2490.35
1087.71	2548.36
1086.77	2593.08
1085.83	2457.14
1084.88	2645.27
1083.94	2719.15
1083	2670.88
1082.06	2760.65
1081.12	2733.62
1080.18	2685.37
1079.23	2698.16
1078.29	2679.11
1077.35	2551.33
1076.41	2656.94
1075.46	2677.68
1074.52	2592.38
1073.58	2578.66
1072.63	2591.45
1071.69	2625.43
1070.75	2579.93
1069.8	2653.63
1068.86	2584.31
1067.91	2636.8
1066.97	2676.03
1066.02	2638.5
1065.08	2677.72
1064.13	2854.49
1063.19	2827.53
1062.24	2673.64
1061.3	2662.59
1060.35	2659.47
1059.41	2640.49
1058.46	2655.88
1057.51	2565.57
1056.57	2623.23
1055.62	2485.42
1054.67	2532.51
1053.73	2598.06
1052.78	2597.6
1051.83	2673.68
1050.89	2591.39
1049.94	2693.83
1048.99	2809.42
1048.04	2742.98
1047.09	2787.32
1046.15	2778.91
1045.2	2828.5
1044.25	2770.01
1043.3	2840.66
1042.35	2732.13
1041.4	2713.21
1040.45	2607.37
1039.5	2596.37
1038.55	2519.56
1037.6	2527.01
1036.66	2516.03
1035.7	2434.01
1034.75	2365.17
1033.8	2320.03
1032.85	2277.53
1031.9	2282.38
1030.95	2352.96
1030	2326.25
1029.05	2310.07
1028.1	2241.34
1027.15	2219.92
1026.19	2206.39
1025.24	2174.48
1024.29	2145.21
1023.34	2126.45
1022.39	2110.32
1021.43	2130.94
1020.48	2141.05
1019.53	2122.3
1018.57	2237.33
1017.62	2079.58
1016.67	2129.03
1015.71	2068.35
1014.76	2060.12
1013.81	2237.95
1012.85	2164.19
1011.9	2142.84
1010.94	2255.08
1009.99	2160.4
1009.03	2272.6
1008.08	2303.61
1007.12	2279.64
1006.17	2237.36
1005.21	2291.9
1004.26	2333.34
1003.3	2351.23
1002.34	2405.73
1001.39	2269.34
1000.43	2373.5
999.476	2286.82
998.519	2294.25
997.562	2233.75
996.605	2188.95
995.648	2185.94
994.69	2070.66
993.733	2106.84
992.775	2049.03
991.817	2030.4
990.859	2048.3
989.901	2058.37
988.942	2005.83
987.983	1914.19
987.025	1984.25
986.066	1973.47
985.107	1996.57
984.147	2040.52
983.188	2092.26
982.228	2151.8
981.268	2075.88
980.308	2192.7
979.348	2239.17
978.388	2275.21
977.427	2319.05
976.466	2563.25
975.506	2690.28
974.545	2791.24
973.583	3167.87
972.622	3442.95
971.66	3728.32
970.699	4138.37
969.737	4553.47
968.775	5103.54
967.812	5814.49
966.85	6452.46
965.887	7160.32
964.925	7636.82
963.962	8432.49
962.999	8812.54
962.035	8932.94
961.072	9175.24
960.108	8836.33
959.144	8409.35
958.18	7603.88
957.216	7185.04
956.252	6584.89
955.287	5914.97
954.323	5431.88
953.358	4798.68
952.393	4525.8
951.428	3991.41
950.462	3685.11
949.497	3498.03
948.531	3292.89
947.565	3004.99
946.599	2913.88
945.633	2696.02
944.666	2636.03
943.7	2488.13
942.733	2389.42
941.766	2290.74
940.799	2202.44
939.832	2119.34
938.864	2106.03
937.897	2041.06
936.929	2048.45
935.961	2060.99
934.993	1957.33
934.024	1856.29
933.056	1850.79
932.087	1865.94
931.118	1870.77
930.149	1808.51
929.18	1844.3
928.211	1831.07
927.241	1877.15
926.271	1773.69
925.302	1855.86
924.331	1901.91
923.361	1868.07
922.391	1872.89
921.42	1862.25
920.449	1941.74
919.478	1879.6
918.507	1884.41
917.536	1842.89
916.565	1873.43
915.593	1919.41
914.621	1793.01
913.649	1921.29
912.677	1920.94
911.705	1936.02
910.732	1915.11
909.759	1835.09
908.786	1886.15
907.813	1932.05
906.84	1893.17
905.867	1869.72
904.893	1941.28
903.919	1940.93
902.945	1902.07
901.971	1994.12
900.997	1998.89
900.023	2016.49
899.048	1957.13
898.073	2036.28
897.098	2017.96
896.123	2048.36
895.148	1973.66
894.172	2111.69
893.196	2037
892.221	2046.88
891.244	2095.18
890.268	2099.92
889.292	2038.09
888.315	2027.48
887.339	2073.19
886.362	2011.4
885.384	1990.56
884.407	1936.48
883.43	2028.21
882.452	2099.44
881.474	2007.02
880.496	2111.47
879.518	2052.3
878.54	2064.71
877.561	2140.98
876.583	2209.56
875.604	2216.82
874.625	2226.63
873.645	2164.96
872.666	2315.17
871.686	2268.81
870.707	2352.6
869.727	2341.97
868.747	2367.06
867.766	2313.07
866.786	2315.2
865.805	2370.87
864.824	2406.12
863.843	2454.11
862.862	2519.91
861.881	2539.83
860.899	2508.81
859.917	2518.54
858.936	2523.18
857.953	2642.36
856.971	2624.07
855.989	2659.22
855.006	2694.36
854.023	2691.32
853.04	2718.81
852.057	2667.46
851.074	2783.93
850.09	2742.75
849.107	2777.84
848.123	2670.61
847.139	2713.32
846.155	2750.93
845.17	2773.28
844.186	2706.76
843.201	2625.03
842.216	2490.03
841.231	2522.57
840.246	2496.74
839.26	2379.59
838.275	2361.4
837.289	2353.37
836.303	2327.58
835.317	2137.03
834.33	2073.28
833.344	2007.02
832.357	2115.6
831.37	2008.82
830.383	1990.73
829.396	1970.11
828.408	1995.07
827.421	1906.11
826.433	1852.61
825.445	1869.99
824.457	1813.99
823.468	1725.13
822.48	1712.17
821.491	1661.29
820.502	1580.09
819.513	1642.99
818.524	1546.66
817.535	1490.79
816.545	1447.57
815.555	1374.06
814.565	1414.21
813.575	1446.78
812.585	1305.15
811.594	1350.34
810.604	1334.96
809.613	1259.02
808.622	1294.11
807.631	1235.86
806.639	1243.2
805.648	1200.12
804.656	1159.56
803.664	1224.88
802.672	1201.98
801.68	1224.44
800.687	1229.25
799.694	1193.77
798.702	1178.44
797.709	1231.1
796.715	1125.15
795.722	1079.65
794.728	1114.68
793.735	1127.06
792.741	1091.64
791.747	1063.78
790.752	1113.87
789.758	1103.61
788.763	1121
787.768	1085.62
786.773	1077.88
785.778	1107.83
784.783	1049.86
783.787	1152.63
782.792	1139.86
781.796	1134.64
780.8	1101.8
779.803	1066.47
778.807	1123.98
777.81	1143.84
776.813	1106.02
775.816	1110.83
774.819	1133.19
773.822	1122.96
772.824	1095.18
771.827	1130.06
770.829	1084.76
769.831	1127.15
768.832	1124.44
767.834	1154.28
766.835	1146.56
765.836	1153.86
764.837	1128.62
763.838	1083.38
762.839	1165.73
761.839	1138.01
760.84	1167.81
759.84	1130.09
758.84	1139.89
757.839	1112.19
756.839	1194.44
755.838	1129.27
754.837	1104.08
753.836	1126.36
752.835	1128.65
751.834	1173.38
750.832	1095.79
749.83	1182.94
748.828	1167.75
747.826	1155.06
746.824	1114.94
745.822	1124.71
744.819	1179.36
743.816	1209.06
742.813	1074.25
741.81	1111.43
740.806	1173.52
739.803	1098.57
738.799	1110.82
737.795	1167.89
736.791	1102.95
735.787	1157.51
734.782	1189.65
733.778	1152.11
732.773	1179.26
731.768	1198.95
730.762	1091.79
729.757	1218.4
728.751	1101.33
727.746	1165.76
726.74	1180.46
725.733	1095.76
724.727	1132.82
723.721	1159.94
722.714	1144.83
721.707	1154.55
720.7	1124.55
719.693	1109.45
718.685	1233.32
717.678	1158.66
716.67	1237.83
715.662	1232.65
714.654	1195.22
713.645	1227.24
712.637	1224.53
711.628	1221.83
710.619	1214.17
709.61	1248.63
708.601	1238.5
707.591	1317.52
706.582	1304.9
705.572	1267.52
704.562	1232.64
703.551	1269.53
702.541	1269.3
701.531	1209.7
700.52	1308.41
699.509	1258.71
698.498	1288.15
697.486	1268.14
696.475	1191.29
695.463	1304.74
694.451	1269.91
693.439	1242.51
692.427	1266.98
691.414	1237.11
690.402	1246.76
689.389	1286.03
688.376	1229.03
687.363	1159.71
686.349	1231.04
685.336	1272.75
684.322	1233.06
683.308	1181.05
682.294	1178.37
681.28	1217.59
680.265	1170.54
679.251	1217.14
678.236	1258.8
677.221	1174.83
676.206	1154.91
675.19	1174.39
674.175	1179.1
673.159	1146.89
672.143	1205.74
671.127	1168.61
670.11	1180.7
669.094	1180.48
668.077	1145.84
667.06	1182.5
666.043	1194.58
665.026	1155.04
664.008	1140.08
662.991	1132.5
661.973	1183.87
660.955	1178.74
659.936	1180.98
658.918	1232.32
657.899	1251.72
656.881	1222.05
655.862	1239
654.843	1228.96
653.823	1204.21
652.804	1257.93
651.784	1225.83
650.764	1223.15
649.744	1303.8
648.724	1249.65
647.703	1256.77
646.683	1342.27
645.662	1263.66
644.641	1395.64
643.619	1427.21
642.598	1392.68
641.576	1338.59
640.555	1375.04
639.533	1413.93
638.511	1374.54
637.488	1486.77
636.466	1481.61
635.443	1400.67
634.42	1393.08
633.397	1444.13
632.374	1429.21
631.35	1443.6
630.326	1421.36
629.303	1479.7
628.279	1545.34
627.254	1476.71
626.23	1613.1
625.205	1524.96
624.18	1627.14
623.155	1682.94
622.13	1672.88
621.105	1635.99
620.079	1662.51
619.054	1674.39
618.028	1778.86
617.002	1778.53
615.975	1717.31
614.949	1704.81
613.922	1736.15
612.895	1789.39
611.868	1825.57
610.841	1905.55
609.813	1880.86
608.786	1836.73
607.758	1928.82
606.73	1797.14
605.702	1779.79
604.673	1842.66
603.645	1779.13
602.616	1803.1
601.587	1814.92
600.558	1751.43
599.528	1836.11
598.499	1894.05
597.469	1896.12
596.439	1949.18
595.409	2036.18
594.379	2154.71
593.348	2377.5
592.318	2304.29
591.287	2250.52
590.256	2303.44
589.224	2300.59
588.193	2309.86
587.161	2340.94
586.129	2238.75
585.097	2277.09
584.065	2157.99
583.033	2239.93
582	2142.67
580.967	2190.68
579.935	2187.86
578.901	2192.29
577.868	2153.18
576.834	2174.55
575.801	2029.04
574.767	2038.34
573.733	1948.52
572.698	2003.75
571.664	1957.46
570.629	1891.86
569.594	1819.04
568.559	1857.35
567.524	1866.66
566.488	1900.12
565.453	1863.56
564.417	1853.56
563.381	1763.93
562.345	1785.32
561.308	1787.4
560.272	1823.25
559.235	1897.66
558.198	1834.62
557.161	1740.28
556.123	1797.8
555.086	1734.82
554.048	1732.09
553.01	1717.31
551.972	1753.12
550.933	1670.93
549.895	1718.77
548.856	1713.63
547.817	1771.07
546.778	1655.26
545.739	1698.25
544.699	1741.22
543.66	1639.91
542.62	1654.03
541.58	1660.93
540.539	1622.17
539.499	1578.62
538.458	1623.97
537.417	1582.84
536.376	1594.56
535.335	1611.07
534.294	1531.55
533.252	1555.27
532.21	1533.38
531.168	1480.31
530.126	1518.42
529.084	1513.34
528.041	1568.21
526.998	1534.36
525.955	1512.5
524.912	1538.58
523.869	1452.03
522.825	1518.84
521.782	1530.54
520.738	1444.04
519.693	1460.53
518.649	1479.41
517.605	1546.15
516.56	1464.5
515.515	1473.8
514.47	1487.88
513.425	1521.09
512.379	1456.24
511.333	1463.14
510.287	1474.82
509.241	1493.67
508.195	1459.94
507.149	1469.22
506.102	1516.72
505.055	1478.23
504.008	1504.22
502.961	1420.39
501.913	1458.31
500.866	1417.47
499.818	1488.78
498.77	1416.94
497.722	1533.54
496.673	1502.26
495.625	1563.97
494.576	1458.8
493.527	1494.27
492.478	1436.81
491.428	1457.98
490.379	1536.31
489.329	1555.08
488.279	1521.45
487.229	1554.5
486.178	1568.49
485.128	1525.36
484.077	1615.49
483.026	1541.45
481.975	1586.35
480.923	1593.19
479.872	1597.64
478.82	1540.3
477.768	1594.67
476.716	1630.02
475.664	1705.73
474.611	1684.04
473.558	1664.73
472.506	1730.9
471.452	1728.2
470.399	1735
469.346	1706.2
468.292	1708.25
467.238	1831.29
466.184	1819.09
465.13	1851.95
464.075	1797.07
463.02	1946.07
461.966	1948.08
460.91	1919.28
459.855	1978.15
458.8	2051.2
457.744	2128.97
456.688	2133.31
455.632	2113.97
454.576	2305.29
453.519	2212.57
452.463	2391.97
451.406	2292.17
450.349	2414.73
449.292	2475.76
448.234	2364.18
447.176	2529.2
446.119	2467.28
445.061	2584.96
444.002	2549.04
442.944	2598.17
441.885	2609.49
440.826	2653.86
439.767	2568.38
438.708	2657.59
437.649	2666.53
436.589	2656.6
435.529	2750.46
434.469	2764.09
433.409	2862.61
432.349	2963.45
431.288	2889.83
430.227	3009.48
429.166	3034.83
428.105	3022.49
427.044	3111.43
425.982	2858.87
424.92	2896.01
423.858	2860.15
422.796	2633.67
421.734	2729.66
420.671	2712.68
419.608	2516.93
418.545	2507.05
417.482	2407.83
416.419	2405.03
415.355	2359.92
414.291	2345.37
413.227	2330.84
412.163	2297.51
411.099	2252.45
410.034	2287.26
408.969	2263.35
407.904	2145.55
406.839	2180.36
405.774	2203.42
404.708	2165.46
403.642	2097.03
402.576	2145.89
401.51	2260.38
400.444	2177.91
399.377	2179.84
398.31	2141.94
397.243	2139.2
396.176	2159.88
395.109	2084.52
394.041	2170.78
392.973	2060.33
391.905	2116.12
390.837	2099.34
389.769	2178.51
388.7	2075.16
387.631	2044.36
386.562	2029.95
385.493	2041.26
384.424	2059.58
383.354	1986.73
382.284	1984.02
381.214	2014.03
380.144	1985.62
379.074	1940.87
378.003	1942.84
376.932	1902.78
375.861	1916.43
374.79	1976.75
373.719	1985.71
372.647	1978.34
371.575	1942.98
370.503	1961.27
369.431	1998.21
368.359	1916.25
367.286	2023.1
366.213	1992.43
365.14	1919.83
364.067	2042.93
362.994	1933.08
361.92	1904.77
360.846	1992.88
359.772	1957.59
358.698	2015.41
357.624	1952.2
356.549	1940.2
355.474	1928.21
354.399	1962.73
353.324	1936.79
352.248	1966.64
351.173	2003.46
350.097	2030.97
349.021	1986.44
347.945	1988.39
346.868	2013.56
345.791	1980.68
344.715	1957.09
343.638	1996.18
342.56	1995.8
341.483	2102.16
340.405	2046.09
339.327	2096.73
338.249	2126.48
337.171	2091.3
336.092	2026
335.014	2208.72
333.935	2004.39
332.856	2064.25
331.777	2084.7
330.697	2144.52
329.617	2114.02
328.537	2069.64
327.457	2115.54
326.377	2189.19
325.297	2140.19
324.216	2255.45
323.135	2100.07
322.054	2185.23
320.972	2261.11
319.891	2276.87
318.809	2299.55
317.727	2213.62
316.645	2215.51
315.563	2203.55
314.48	2270.1
313.397	2311.24
312.315	2343.12
311.231	2275.74
310.148	2275.31
309.064	2330.26
307.981	2357.5
306.897	2327.07
305.812	2458.07
304.728	2349.25
303.643	2470.97
302.559	2293.05
301.474	2421.65
300.388	2379.73
299.303	2462.2
298.217	2459.43
297.132	2447.45
296.046	2470.01
294.959	2407.4
293.873	2620.95
292.786	2542.23
291.699	2619.96
290.612	2529.77
289.525	2513.2
288.438	2549.51
287.35	2592.7
286.262	2628.98
285.174	2591.72
284.086	2660.14
282.997	2664.23
281.909	2610.92
280.82	2601.24
279.731	2731.59
278.641	2673.7
277.552	2737.44
276.462	2713.98
275.372	2637.77
274.282	2774.87
273.192	2769.76
272.101	2824.26
271.01	2759.55
269.919	2761.31
268.828	2850.15
267.737	2854.19
266.645	2945.26
265.553	2976.76
264.461	2882.33
263.369	2936.72
262.277	2922.43
261.184	2951.62
260.091	3003.68
258.998	2991.68
257.905	3016.26
256.812	3072.85
255.718	3033.41
254.624	3217.96
253.53	3196.78
252.436	3113.93
251.341	3232.12
250.247	3274.9
249.152	3335.93
248.057	3287.36
246.961	3298.15
245.866	3493.77
244.77	3468.02
243.674	3385.24
242.578	3480.39
241.482	3568.66
240.385	3552.02
239.288	3523.99
238.191	3623.6
237.094	3688.99
235.997	3749.8
234.899	3849.31
233.801	3880.46
232.703	3888.83
231.605	3958.67
230.507	3891.91
229.408	3991.3
228.309	4108.84
227.21	4037.55
226.111	4107.29
225.011	4158.8
223.912	4037.53
222.812	4150.41
221.712	4226.88
220.611	4246.53
219.511	4241.18
218.41	4378.92
217.309	4280.44
216.208	4390.88
215.107	4460.41
214.005	4398.29
212.903	4365.69
211.801	4380.74
210.699	4470.63
209.597	4583.17
208.494	4543.76
207.391	4574.63
206.288	4718.82
205.185	4645.41
204.082	4662.65
202.978	4772.76
201.874	4753.73
200.77	4712.07
199.666	4785.88
198.561	4789.5
197.456	4781.8
196.352	4753.74
195.246	4847.85
194.141	4785.86
193.036	4721.63
191.93	4768.21
190.824	4719.83
189.718	4646.62
188.611	4661.55
187.505	4934.02
186.398	4808.85
185.291	4891.49
184.184	4849.92
183.076	4970.9
181.968	4809.7
180.861	4831.35
179.752	4940.99
178.644	4964.86
177.536	4941.36
176.427	5001.3
175.318	4962.02
174.209	4913.74
173.1	5072.81
171.99	5110.15
170.88	5131.7
169.77	5259.11
168.66	5372.95
167.55	5293.12
166.439	5334.89
165.328	5414.89
164.217	5479.11
163.106	5689.54
161.994	5627.73
160.883	5716.61
159.771	5760.49
158.659	5862.8
157.547	5872.91
156.434	5936.96
155.321	6167.24
154.208	6208.74
153.095	6304.13
151.982	6424.18
150.868	6562.15
149.754	6509.27
148.64	6622.48
147.526	6753.6
146.412	6920.55
145.297	7183.89
144.182	6982.94
143.067	7239.44
141.952	7388.24
140.836	7610.95
139.721	7855.97
138.605	8112.11
137.489	7911.21
136.372	8162.76
135.256	8230.61
134.139	8410.36
133.022	8504.99
131.905	8630.92
130.787	8772.46
129.67	9101.84
128.552	9113.52
127.434	9301.84
126.316	9291.12
125.197	9532.98
124.078	9595.96
122.959	10003
121.84	10179.8
120.721	10285.1
119.601	10392.5
118.482	10616
117.362	10730.1
116.241	11161
115.121	11390.9
114	11589.5
112.88	11761.3
111.758	11799.1
110.637	11752.3
109.516	11767.9
108.394	12001.9
107.272	12153.3
106.15	11919.3
105.028	11533.9
103.905	11346.8
102.782	10966.1
101.659	10886.1
100.536	10614.7
