3201.19	67.3794
3200.6	54.7457
3200	42.1058
3199.41	50.5193
3198.82	21.0465
3198.22	21.0433
3197.63	37.8723
3197.03	37.8666
3196.44	42.0676
3195.85	42.0613
3195.25	63.0823
3194.66	46.2534
3194.06	50.4506
3193.47	37.8323
3192.87	46.2324
3192.28	37.8208
3191.68	42.0168
3191.09	67.2167
3190.49	63.0061
3189.9	58.7968
3189.3	25.1948
3188.71	33.588
3188.11	50.3744
3187.52	54.564
3186.92	75.5388
3186.32	79.7233
3185.73	20.9767
3185.13	58.7257
3184.54	41.9406
3183.94	41.9343
3183.34	67.0847
3182.75	75.4589
3182.15	20.9576
3181.55	58.6725
3180.96	33.5221
3180.36	41.8962
3179.76	75.4018
3179.17	41.8836
3178.57	79.5667
3177.97	58.6192
3177.38	71.1697
3176.78	46.044
3176.18	50.2223
3175.58	29.2919
3174.99	50.2071
3174.39	62.7493
3173.79	66.9225
3173.19	50.1843
3172.6	41.8139
3172	66.8921
3171.4	66.882
3170.8	37.6154
3170.2	50.1463
3169.6	33.4258
3169.01	54.3087
3168.41	75.1853
3167.81	58.4686
3167.21	50.1084
3166.61	83.5013
3166.01	50.0932
3165.41	45.9118
3164.81	41.7317
3164.22	54.243
3163.62	66.7505
3163.02	79.2542
3162.42	41.7064
3161.82	25.02
3161.22	87.5569
3160.62	62.5312
3160.02	66.6898
3159.42	54.1773
3158.82	79.1701
3158.22	58.3271
3157.62	70.815
3157.02	49.9795
3156.42	45.8076
3155.82	45.8006
3155.22	54.1198
3154.62	54.1116
3154.02	41.618
3153.42	41.6117
3152.81	70.7292
3152.21	70.7184
3151.61	66.5484
3151.01	95.6489
3150.41	45.7382
3149.81	74.8329
3149.21	41.5676
3148.61	78.9664
3148	24.933
3147.4	58.1681
3146.8	91.3932
3146.2	33.2288
3145.6	58.1416
3144.99	66.4375
3144.39	16.6069
3143.79	37.3598
3143.19	74.7082
3142.59	49.7979
3141.98	58.0887
3141.38	45.6342
3140.78	58.0711
3140.17	49.7677
3139.57	33.1734
3138.97	53.8986
3138.37	53.8905
3137.76	66.3166
3137.16	37.2975
3136.56	66.2965
3135.95	62.1435
3135.35	82.8455
3134.75	74.5496
3134.14	33.1281
3133.54	37.2635
3132.93	37.2578
3132.33	70.3652
3131.73	78.6315
3131.12	53.7924
3130.52	57.9214
3129.91	57.9126
3129.31	70.3118
3128.7	41.3536
3128.1	57.8863
3127.49	70.2798
3126.89	74.4026
3126.28	61.9927
3125.68	74.38
3125.07	45.4475
3124.47	78.4883
3123.86	61.9551
3123.26	70.2051
3122.65	70.1944
3122.05	57.7984
3121.44	78.4287
3120.84	74.2896
3120.23	41.2657
3119.62	94.8968
3119.02	61.8798
3118.41	49.4963
3117.81	65.985
3117.2	53.6047
3116.59	61.8422
3115.99	74.1993
3115.38	37.094
3114.77	78.2977
3114.17	32.9624
3113.56	53.5558
3112.95	53.5477
3112.35	61.7764
3111.74	49.4136
3111.13	41.1717
3110.53	57.6316
3109.92	98.7821
3109.31	78.1906
3108.7	78.1787
3108.09	65.8247
3107.49	53.4744
3106.88	53.4663
3106.27	86.3555
3105.66	41.1154
3105.06	45.22
3104.45	61.6543
3103.84	73.9739
3103.23	78.0717
3102.62	61.6262
3102.01	69.8324
3101.4	20.5358
3100.8	69.8111
3100.19	57.4828
3099.58	61.5793
3098.97	57.4653
3098.36	77.9767
3097.75	90.275
3097.14	61.5418
3096.53	94.3497
3095.92	53.32
3095.31	49.211
3094.7	73.8052
3094.09	57.3953
3093.48	49.1885
3092.87	61.4762
3092.26	49.1735
3091.65	86.0405
3091.04	73.7378
3090.43	98.302
3089.82	61.4294
3089.21	90.0827
3088.6	85.975
3087.99	57.3079
3087.38	69.5776
3086.77	61.3826
3086.16	73.6479
3085.55	73.6367
3084.93	44.9934
3084.32	73.6143
3083.71	40.8906
3083.1	49.0612
3082.49	81.7562
3081.88	85.831
3081.27	126.684
3080.65	73.547
3080.04	73.5357
3079.43	77.6092
3078.82	44.9248
3078.21	69.4187
3077.59	89.8222
3076.98	61.2331
3076.37	73.4685
3075.76	48.9715
3075.14	44.8837
3074.53	73.4349
3073.92	89.7401
3073.3	106.04
3072.69	65.2456
3072.08	89.699
3071.46	40.7661
3070.85	85.5956
3070.24	85.5826
3069.62	97.7937
3069.01	89.6306
3068.4	81.4699
3067.78	65.166
3067.17	109.951
3066.56	89.5759
3065.94	73.2782
3065.33	93.6189
3064.71	97.6744
3064.1	61.0372
3063.48	52.8908
3062.87	81.3581
3062.25	85.4129
3061.64	60.9999
3061.02	101.651
3060.41	89.4392
3059.79	101.62
3059.18	93.4761
3058.56	73.144
3057.95	93.4475
3057.33	73.1217
3056.72	73.1105
3056.1	97.4658
3055.49	64.9673
3054.87	81.1967
3054.26	73.0659
3053.64	60.8789
3053.02	77.1015
3052.41	89.2618
3051.79	105.475
3051.17	101.403
3050.56	68.9434
3049.94	85.1524
3049.32	109.465
3048.71	72.9654
3048.09	48.6362
3047.47	93.2051
3046.86	93.1909
3046.24	93.1766
3045.62	101.263
3045.01	101.248
3044.39	72.8874
3043.77	113.363
3043.15	64.769
3042.54	121.423
3041.92	89.0301
3041.3	80.9241
3040.68	68.775
3040.06	113.259
3039.45	97.0644
3038.83	105.137
3038.21	80.8622
3037.59	92.9773
3036.97	68.7119
3036.35	109.114
3035.73	92.9347
3035.12	88.8804
3034.5	88.8668
3033.88	92.892
3033.26	88.8396
3032.64	68.6383
3032.02	80.7386
3031.4	80.7262
3030.78	72.6425
3030.16	48.4209
3029.54	92.7925
3028.92	108.914
3028.3	133.096
3027.68	68.5543
3027.06	124.992
3026.44	76.5961
3025.82	100.769
3025.2	96.7233
3024.58	84.6199
3023.96	88.6359
3023.34	92.6506
3022.72	84.581
3022.1	112.757
3021.48	80.5287
3020.86	108.697
3020.24	116.731
3019.62	96.59
3018.99	108.647
3018.37	80.467
3017.75	96.5457
3017.13	68.376
3016.51	80.4301
3015.89	88.4595
3015.26	84.4257
3014.64	104.511
3014.02	112.533
3013.4	100.461
3012.78	112.499
3012.15	88.3782
3011.53	132.547
3010.91	112.447
3010.29	112.43
3009.66	104.383
3009.04	104.367
3008.42	84.2834
3007.79	84.2705
3007.17	96.2944
3006.55	116.338
3005.92	80.2207
3005.3	100.261
3004.68	84.2059
3004.05	100.23
3003.43	96.2058
3002.81	88.1751
3002.18	116.213
3001.56	112.188
3000.94	120.183
3000.31	112.154
2999.69	88.1075
2999.06	120.128
2998.44	76.0695
2997.81	148.113
2997.19	92.0559
2996.56	108.049
2995.94	88.0264
2995.31	96.0141
2994.69	123.999
2994.06	83.9865
2993.44	111.965
2992.81	103.951
2992.19	95.9404
2991.56	119.907
2990.94	111.896
2990.31	103.888
2989.69	111.862
2989.06	103.856
2988.43	87.8644
2987.81	115.803
2987.18	155.712
2986.56	103.792
2985.93	127.724
2985.3	103.76
2984.68	107.734
2984.05	115.697
2983.42	103.712
2982.8	95.7196
2982.17	135.582
2981.54	95.6902
2980.92	119.594
2980.29	115.59
2979.66	95.6461
2979.03	107.585
2978.41	115.537
2977.78	111.536
2977.15	99.5701
2976.52	103.537
2975.89	103.521
2975.27	95.5433
2974.64	127.371
2974.01	95.5139
2973.38	91.5201
2972.75	107.42
2972.13	115.359
2971.5	107.387
2970.87	79.5337
2970.24	119.282
2969.61	103.362
2968.98	107.321
2968.35	87.4333
2967.72	143.051
2967.09	147.002
2966.46	111.227
2965.84	127.097
2965.21	127.078
2964.58	115.147
2963.95	95.2791
2963.32	123.05
2962.69	127
2962.06	111.108
2961.43	99.188
2960.8	91.2389
2960.17	115.023
2959.54	103.108
2958.91	95.1619
2958.27	87.2183
2957.64	126.843
2957.01	114.934
2956.38	142.655
2955.75	118.861
2955.12	122.804
2954.49	118.824
2953.86	106.925
2953.23	142.545
2952.59	114.81
2951.96	91.0425
2951.33	118.733
2950.7	154.329
2950.07	138.479
2949.44	118.678
2948.8	134.481
2948.17	106.777
2947.54	134.439
2946.91	134.419
2946.27	118.587
2945.64	122.521
2945.01	118.55
2944.38	98.7764
2943.74	118.513
2943.11	126.395
2942.48	106.629
2941.84	138.202
2941.21	161.869
2940.58	126.317
2939.94	114.457
2939.31	134.17
2938.68	165.714
2938.04	130.184
2937.41	134.108
2936.78	141.975
2936.14	122.238
2935.51	145.874
2934.87	98.5482
2934.24	118.24
2933.61	110.34
2932.97	133.964
2932.34	137.882
2931.7	133.922
2931.07	153.593
2930.43	118.13
2929.8	145.672
2929.16	102.348
2928.53	129.883
2927.89	141.669
2927.26	145.582
2926.62	125.889
2925.98	121.936
2925.35	165.178
2924.71	125.831
2924.08	133.675
2923.44	141.516
2922.81	133.633
2922.17	133.613
2921.53	125.734
2920.9	137.5
2920.26	133.551
2919.62	153.167
2918.99	145.29
2918.35	164.898
2917.71	149.17
2917.08	156.997
2916.44	133.427
2915.8	133.406
2915.16	153.001
2914.53	145.133
2913.89	129.423
2913.25	160.773
2912.61	137.224
2911.98	125.443
2911.34	164.618
2910.7	125.404
2910.06	109.711
2909.43	152.789
2908.79	141.014
2908.15	156.658
2907.51	164.466
2906.87	152.694
2906.23	156.585
2905.59	113.507
2904.96	156.537
2904.32	172.164
2903.68	117.366
2903.04	176.022
2902.4	168.173
2901.76	132.954
2901.12	129.023
2900.48	156.368
2899.84	128.983
2899.2	140.687
2898.56	183.647
2897.92	132.83
2897.28	171.871
2896.64	140.6
2896	179.628
2895.36	160.079
2894.72	156.15
2894.08	167.835
2893.44	179.517
2892.8	148.274
2892.16	140.448
2891.52	167.732
2890.88	167.706
2890.24	140.383
2889.59	163.755
2888.95	159.831
2888.31	120.829
2887.67	163.679
2887.03	198.722
2886.39	171.42
2885.74	136.336
2885.1	167.472
2884.46	175.234
2883.82	194.675
2883.18	167.394
2882.53	179.045
2881.89	147.884
2881.25	155.643
2880.61	159.51
2879.96	163.375
2879.32	171.128
2878.68	174.99
2878.04	167.187
2877.39	182.711
2876.75	213.778
2876.11	194.313
2875.46	182.626
2874.82	151.517
2874.18	217.53
2873.53	170.89
2872.89	151.447
2872.24	170.837
2871.6	190.22
2870.96	147.495
2870.31	178.519
2869.67	166.851
2869.02	147.426
2868.38	159.041
2867.73	186.165
2867.09	201.648
2866.44	155.09
2865.8	155.065
2865.15	151.165
2864.51	182.145
2863.86	182.117
2863.22	193.712
2862.57	162.693
2861.93	197.525
2861.28	193.622
2860.64	178.104
2859.99	232.274
2859.35	162.566
2858.7	193.501
2858.05	177.994
2857.41	189.573
2856.76	177.938
2856.11	150.837
2855.47	185.617
2854.82	150.791
2854.17	166.231
2853.53	146.879
2852.88	177.773
2852.23	154.561
2851.59	204.762
2850.94	181.553
2850.29	181.525
2849.64	196.943
2849	189.19
2848.35	220.044
2847.7	131.234
2847.05	165.947
2846.41	177.497
2845.76	173.611
2845.11	216.016
2844.46	181.271
2843.81	185.099
2843.17	192.782
2842.52	185.042
2841.87	131.051
2841.22	215.815
2840.57	196.515
2839.92	227.306
2839.27	200.306
2838.62	192.572
2837.97	173.288
2837.33	154.01
2836.68	161.685
2836.03	200.151
2835.38	134.696
2834.73	215.48
2834.08	188.515
2833.43	188.486
2832.78	184.611
2832.13	169.2
2831.48	169.174
2830.83	249.877
2830.18	222.933
2829.53	207.526
2828.87	188.281
2828.22	169.042
2827.57	184.381
2826.92	161.309
2826.27	218.885
2825.62	161.258
2824.97	184.267
2824.32	184.238
2823.67	199.56
2823.01	207.203
2822.36	187.988
2821.71	187.959
2821.06	164.918
2820.41	180.231
2819.76	191.706
2819.1	176.342
2818.45	199.312
2817.8	195.448
2817.15	229.903
2816.49	199.219
2815.84	145.56
2815.19	222.136
2814.54	149.344
2813.88	168.465
2813.23	214.376
2812.58	187.55
2811.92	176.04
2811.27	183.665
2810.62	210.417
2809.96	218.035
2809.31	221.825
2808.66	233.262
2808	194.992
2807.35	183.494
2806.69	217.865
2806.04	206.366
2805.38	187.229
2804.73	217.763
2804.08	210.089
2803.42	198.599
2802.77	190.931
2802.11	202.355
2801.46	194.689
2800.8	187.025
2800.15	228.974
2799.49	190.782
2798.84	232.718
2798.18	186.908
2797.53	209.762
2796.87	209.729
2796.21	213.509
2795.56	190.604
2794.9	205.82
2794.25	213.41
2793.59	205.756
2792.93	190.485
2792.28	228.546
2791.62	213.276
2790.96	251.322
2790.31	197.981
2789.65	209.37
2788.99	266.429
2788.34	239.749
2787.68	228.297
2787.02	194.022
2786.37	239.637
2785.71	212.977
2785.05	250.97
2784.39	212.911
2783.74	239.487
2783.08	201.442
2782.42	250.813
2781.76	220.377
2781.1	227.941
2780.45	197.518
2779.79	224.072
2779.13	246.82
2778.47	208.815
2777.81	235.355
2777.15	254.295
2776.5	227.692
2775.84	235.245
2775.18	246.589
2774.52	197.24
2773.86	227.549
2773.2	212.346
2772.54	219.896
2771.88	204.699
2771.22	197.086
2770.56	189.476
2769.9	231.125
2769.24	227.301
2768.58	223.477
2767.92	208.294
2767.26	208.261
2766.6	246.089
2765.94	211.982
2765.28	246.012
2764.62	223.268
2763.96	238.367
2763.3	226.981
2762.64	234.511
2761.98	219.347
2761.31	226.875
2760.65	230.62
2759.99	291.065
2759.33	238.107
2758.67	215.396
2758.01	222.919
2757.35	260.661
2756.68	226.626
2756.02	211.485
2755.36	260.539
2754.7	211.419
2754.04	218.935
2753.37	230.223
2752.71	260.376
2752.05	267.881
2751.39	222.571
2750.72	279.113
2750.06	230.043
2749.4	271.484
2748.73	245.051
2748.07	271.399
2747.41	237.437
2746.74	252.473
2746.08	195.918
2745.42	237.326
2744.75	229.755
2744.09	271.144
2743.42	233.449
2742.76	240.942
2742.1	248.432
2741.43	274.738
2740.77	225.777
2740.1	237.028
2739.44	244.515
2738.77	229.432
2738.11	278.284
2737.44	236.88
2736.78	263.159
2736.11	255.6
2735.45	255.56
2734.78	248.005
2734.12	281.779
2733.45	277.979
2732.79	255.4
2732.12	307.934
2731.46	236.546
2730.79	247.771
2730.12	243.979
2729.46	247.694
2728.79	240.15
2728.12	262.623
2727.46	228.821
2726.79	225.035
2726.12	262.5
2725.46	284.955
2724.79	262.417
2724.12	277.369
2723.46	273.578
2722.79	221.076
2722.12	236.028
2721.46	265.958
2720.79	277.152
2720.12	258.385
2719.45	265.832
2718.78	254.56
2718.12	254.52
2717.45	254.48
2716.78	246.957
2716.11	280.589
2715.44	276.804
2714.78	261.801
2714.11	295.414
2713.44	280.413
2712.77	246.724
2712.1	276.587
2711.43	261.595
2710.76	250.345
2710.09	220.418
2709.42	287.619
2708.75	298.778
2708.09	261.39
2707.42	280.017
2706.75	291.172
2706.08	276.196
2705.41	306.007
2704.74	305.959
2704.07	253.682
2703.4	268.563
2702.73	249.873
2702.06	294.58
2701.38	290.806
2700.71	298.216
2700.04	272.079
2699.37	227.318
2698.7	264.542
2698.03	305.479
2697.36	301.706
2696.69	286.762
2696.02	275.546
2695.34	286.672
2694.67	297.794
2694	320.078
2693.33	275.373
2692.66	275.33
2691.99	286.447
2691.31	260.365
2690.64	316.108
2689.97	275.157
2689.3	289.984
2688.62	308.525
2687.95	289.893
2687.28	330.723
2686.61	300.948
2685.93	289.756
2685.26	319.425
2684.59	311.947
2683.91	282.194
2683.24	300.712
2682.57	282.105
2681.89	341.441
2681.22	296.859
2680.55	333.914
2679.87	304.185
2679.2	289.301
2678.52	330.048
2677.85	300.333
2677.17	281.75
2676.5	326.185
2675.83	296.485
2675.15	277.911
2674.48	288.982
2673.8	325.98
2673.13	281.484
2672.45	296.252
2671.78	355.446
2671.1	318.371
2670.42	288.709
2669.75	325.672
2669.07	307.12
2668.4	299.672
2667.72	347.713
2667.05	288.482
2666.37	295.832
2665.69	306.878
2665.02	310.526
2664.34	340.046
2663.66	306.733
2662.99	291.904
2662.31	280.775
2661.63	291.812
2660.96	291.766
2660.28	313.876
2659.6	343.364
2658.93	335.926
2658.25	317.419
2657.57	339.511
2656.89	298.87
2656.22	332.026
2655.54	320.907
2654.86	302.417
2654.18	317.119
2653.5	357.624
2652.83	298.587
2652.15	353.826
2651.47	331.659
2650.79	342.66
2650.11	302.083
2649.43	338.869
2648.76	301.988
2648.08	349.809
2647.4	309.256
2646.72	301.845
2646.04	323.88
2645.36	279.67
2644.68	309.061
2644	364.193
2643.32	345.744
2642.64	342.012
2641.96	338.281
2641.28	360.286
2640.6	360.229
2639.92	312.395
2639.24	304.996
2638.56	315.97
2637.88	319.594
2637.2	345.253
2636.52	334.182
2635.84	389.205
2635.16	356.103
2634.47	304.659
2633.79	344.981
2633.11	366.943
2632.43	359.547
2631.75	344.818
2631.07	333.76
2630.39	337.374
2629.7	322.655
2629.02	344.6
2628.34	351.876
2627.66	296.848
2626.98	326.115
2626.29	348.046
2625.61	358.98
2624.93	380.898
2624.25	366.19
2623.56	336.842
2622.88	329.467
2622.2	362.356
2621.51	336.682
2620.83	351.265
2620.15	347.551
2619.46	358.469
2618.78	365.727
2618.1	343.729
2617.41	398.517
2616.73	343.62
2616.04	350.876
2615.36	350.821
2614.68	372.688
2613.99	387.242
2613.31	332.391
2612.62	368.859
2611.94	328.634
2611.25	361.44
2610.57	346.782
2609.88	350.377
2609.2	375.866
2608.51	379.455
2607.83	324.674
2607.14	357.45
2606.46	408.45
2605.77	397.446
2605.09	328.114
2604.4	357.224
2603.71	335.3
2603.03	426.346
2602.34	375.271
2601.66	364.283
2600.97	371.51
2600.28	360.526
2599.6	436.932
2598.91	385.896
2598.22	371.275
2597.54	371.216
2596.85	374.796
2596.16	341.993
2595.47	378.315
2594.79	356.432
2594.1	330.921
2593.41	352.684
2592.72	378.075
2592.04	352.572
2591.35	377.955
2590.66	396.063
2589.97	359.67
2589.28	359.613
2588.6	352.293
2587.91	381.287
2587.22	344.919
2586.53	377.536
2585.84	384.735
2585.15	381.045
2584.46	449.925
2583.77	446.226
2583.09	362.728
2582.4	391.684
2581.71	373.491
2581.02	409.687
2580.33	373.373
2579.64	376.938
2578.95	358.759
2578.26	413.051
2577.57	398.495
2576.88	383.943
2576.19	383.882
2575.5	412.789
2574.81	387.381
2574.12	390.939
2573.42	372.781
2572.73	394.434
2572.04	394.371
2571.35	394.308
2570.66	347.226
2569.97	419.498
2569.28	404.968
2568.59	383.212
2567.89	419.298
2567.2	433.688
2566.51	408.324
2565.82	386.582
2565.13	379.296
2564.43	404.518
2563.74	418.899
2563.05	411.611
2562.36	404.325
2561.66	451.184
2560.97	342.846
2560.28	342.791
2559.59	353.56
2558.89	418.433
2558.2	360.661
2557.51	393.058
2556.81	418.234
2556.12	432.587
2555.43	364.036
2554.73	414.43
2554.04	410.761
2553.34	363.862
2552.65	399.825
2551.96	435.776
2551.26	410.5
2550.57	410.435
2549.87	413.97
2549.18	385.11
2548.48	446.225
2547.79	384.988
2547.09	392.122
2546.4	402.85
2545.7	420.767
2545.01	438.679
2544.31	452.99
2543.62	427.756
2542.92	413.312
2542.23	377.311
2541.53	416.773
2540.83	438.261
2540.14	391.498
2539.44	427.348
2538.75	438.051
2538.05	441.572
2537.35	394.839
2536.66	459.375
2535.96	434.184
2535.26	452.054
2534.57	444.808
2533.87	412.457
2533.17	405.22
2532.48	408.741
2531.78	451.694
2531.08	440.869
2530.38	412.129
2529.68	401.314
2528.99	465.737
2528.29	408.35
2527.59	415.448
2526.89	429.705
2526.19	440.378
2525.5	425.989
2524.8	397.288
2524.1	422.275
2523.4	436.519
2522.7	411.408
2522	432.803
2521.3	439.887
2520.6	436.241
2519.91	400.42
2519.21	489.721
2518.51	468.199
2517.81	475.271
2517.11	425.175
2516.41	467.975
2515.71	471.472
2515.01	453.541
2514.31	407.051
2513.61	431.976
2512.91	424.768
2512.21	449.683
2511.51	424.633
2510.8	410.294
2510.1	470.871
2509.4	445.83
2508.7	420.796
2508	467.08
2507.3	442.051
2506.6	488.318
2505.9	420.528
2505.19	427.587
2504.49	456.02
2503.79	434.575
2503.09	495.051
2502.39	430.875
2501.69	423.686
2500.98	448.537
2500.28	459.143
2499.58	437.717
2498.88	451.88
2498.17	448.25
2497.47	487.305
2496.77	462.333
2496.06	512.041
2495.36	447.964
2494.66	483.44
2493.95	469.146
2493.25	465.517
2492.55	458.337
2491.84	429.844
2491.14	412.016
2490.44	490.079
2489.73	468.696
2489.03	468.622
2488.32	425.951
2487.62	464.923
2486.91	486.139
2486.21	489.609
2485.5	468.247
2484.8	521.374
2484.09	461.005
2483.39	460.932
2482.68	436.042
2481.98	425.339
2481.27	481.974
2480.57	485.44
2479.86	449.935
2479.16	471.116
2478.45	488.749
2477.74	488.671
2477.04	456.728
2476.33	527.454
2475.63	453.043
2474.92	548.519
2474.21	459.974
2473.51	481.127
2472.8	424.456
2472.09	484.51
2471.39	519.792
2470.68	519.709
2469.97	434.789
2469.26	473.597
2468.56	448.785
2467.85	505.244
2467.14	480.435
2466.43	512.146
2465.73	455.56
2465.02	564.946
2464.31	550.734
2463.6	487.11
2462.89	462.327
2462.18	483.425
2461.48	550.381
2460.77	476.215
2460.06	483.193
2459.35	511.327
2458.64	444.254
2457.93	546.416
2457.22	532.229
2456.51	528.62
2455.8	542.63
2455.09	496.744
2454.38	503.709
2453.67	584.631
2452.96	503.547
2452.25	485.863
2451.54	499.866
2450.83	457.55
2450.12	531.377
2449.41	457.404
2448.7	457.33
2447.99	453.74
2447.28	450.15
2446.57	530.952
2445.86	537.898
2445.15	558.902
2444.43	555.298
2443.72	488.443
2443.01	530.526
2442.3	537.467
2441.59	505.77
2440.88	516.224
2440.16	530.186
2439.45	494.995
2438.74	540.546
2438.03	519.402
2437.32	487.739
2436.6	582.386
2435.89	543.707
2435.18	533.098
2434.46	518.986
2433.75	490.854
2433.04	567.897
2432.32	508.221
2431.61	487.113
2430.9	532.585
2430.18	469.44
2429.47	521.906
2428.76	518.32
2428.04	584.767
2427.33	486.644
2426.61	598.581
2425.9	584.485
2425.19	514.405
2424.47	549.31
2423.76	524.734
2423.04	507.162
2422.33	521.068
2421.61	520.985
2420.9	562.853
2420.18	555.772
2419.47	527.723
2418.75	517.156
2418.04	503.098
2417.32	565.894
2416.6	548.34
2415.89	562.22
2415.17	537.689
2414.46	544.585
2413.74	579.401
2413.02	572.328
2412.31	512.919
2411.59	582.61
2410.87	540.659
2410.16	551.035
2409.44	557.92
2408.72	575.263
2408.01	568.199
2407.29	543.71
2406.57	480.897
2405.85	543.535
2405.14	557.382
2404.42	543.36
2403.7	550.238
2402.98	529.258
2402.26	532.654
2401.55	560.415
2400.83	570.766
2400.11	483.681
2399.39	525.353
2398.67	587.883
2397.95	521.706
2397.23	545.964
2396.51	570.215
2395.8	549.265
2395.08	587.41
2394.36	587.316
2393.64	562.899
2392.92	541.963
2392.2	531.455
2391.48	562.627
2390.76	583.371
2390.04	545.086
2389.32	544.998
2388.6	603.914
2387.88	544.823
2387.16	530.857
2386.44	572.4
2385.72	624.336
2384.99	613.831
2384.27	547.852
2383.55	585.899
2382.83	606.602
2382.11	561.45
2381.39	564.825
2380.67	554.34
2379.95	606.211
2379.22	585.333
2378.5	637.183
2377.78	598.994
2377.06	564.279
2376.33	619.568
2375.61	581.4
2374.89	591.687
2374.17	581.213
2373.44	581.119
2372.72	556.816
2372	636.259
2371.28	622.327
2370.55	604.942
2369.83	584.107
2369.11	573.646
2368.38	646.111
2367.66	594.188
2366.93	552.644
2366.21	635.438
2365.49	562.825
2364.76	607.614
2364.04	579.902
2363.31	555.65
2362.59	593.518
2361.86	555.47
2361.14	645.07
2360.42	579.434
2359.69	544.856
2358.97	606.83
2358.24	586.048
2357.51	599.741
2356.79	551.397
2356.06	602.993
2355.34	554.664
2354.61	654.467
2353.89	582.037
2353.16	664.586
2352.43	609.392
2351.71	557.659
2350.98	616.079
2350.26	598.773
2349.53	588.354
2348.8	598.58
2348.07	550.329
2347.35	619.02
2346.62	625.797
2345.89	581.004
2345.17	536.224
2344.44	639.241
2343.71	615.084
2342.98	573.757
2342.26	570.229
2341.53	621.655
2340.8	594.083
2340.07	600.853
2339.34	624.787
2338.62	628.118
2337.89	590.267
2337.16	624.484
2336.43	600.368
2335.7	627.712
2334.97	613.892
2334.24	651.512
2333.51	647.978
2332.78	596.455
2332.05	664.905
2331.33	637.383
2330.6	596.165
2329.87	630.326
2329.14	664.475
2328.41	592.451
2327.68	599.204
2326.95	660.729
2326.22	612.701
2325.48	602.335
2324.75	622.768
2324.02	632.931
2323.29	643.091
2322.56	629.306
2321.83	663.4
2321.1	666.712
2320.37	635.838
2319.64	604.973
2318.9	601.458
2318.17	625.278
2317.44	676.421
2316.71	628.492
2315.98	655.711
2315.25	597.557
2314.51	669.155
2313.78	587.122
2313.05	614.331
2312.32	651.768
2311.58	603.896
2310.85	634.5
2310.12	685.558
2309.38	664.986
2308.65	658.059
2307.92	634.089
2307.18	637.395
2306.45	657.739
2305.72	705.337
2304.98	575.761
2304.25	677.857
2303.51	653.907
2302.78	694.664
2302.05	687.742
2301.31	691.034
2300.58	728.361
2299.84	670.392
2299.11	751.942
2298.37	680.38
2297.64	710.882
2296.9	652.953
2296.17	690.25
2295.43	645.942
2294.7	666.232
2293.96	676.32
2293.23	683.006
2292.49	689.69
2291.75	652.212
2291.02	614.746
2290.28	638.417
2289.55	638.314
2288.81	672.157
2288.07	672.048
2287.34	658.365
2286.6	726.119
2285.86	681.899
2285.12	705.532
2284.39	722.374
2283.65	664.612
2282.91	674.675
2282.18	694.904
2281.44	637.175
2280.7	664.181
2279.96	725.059
2279.22	643.639
2278.49	629.987
2277.75	670.522
2277.01	656.869
2276.27	660.148
2275.53	720.968
2274.79	670.086
2274.05	730.885
2273.32	615.738
2272.58	666.377
2271.84	683.179
2271.1	683.068
2270.36	669.433
2269.62	672.705
2268.88	689.495
2268.14	658.969
2267.4	709.543
2266.66	702.672
2265.92	614.738
2265.18	736.214
2264.44	678.693
2263.7	735.975
2262.96	654.844
2262.22	728.986
2261.48	711.995
2260.74	688.263
2259.99	694.897
2259.25	725.139
2258.51	731.765
2257.77	694.558
2257.03	728.156
2256.29	717.926
2255.55	677.369
2254.8	687.367
2254.06	663.673
2253.32	680.407
2252.58	740.916
2251.83	676.818
2251.09	680.074
2250.35	754.019
2249.61	703.412
2248.86	662.917
2248.12	716.641
2247.38	655.973
2246.63	696.227
2245.89	672.574
2245.15	682.551
2244.4	786.655
2243.66	699.135
2242.92	719.185
2242.17	688.827
2241.43	772.704
2240.68	749.065
2239.94	732.151
2239.19	674.946
2238.45	715.125
2237.7	704.938
2236.96	761.88
2236.21	697.997
2235.47	707.949
2234.72	721.252
2233.98	714.426
2233.23	764.613
2232.49	720.899
2231.74	730.839
2231	720.664
2230.25	740.655
2229.5	733.833
2228.76	703.56
2228.01	767.091
2227.27	730.124
2226.52	790.281
2225.77	723.19
2225.03	672.859
2224.28	779.853
2223.53	732.876
2222.78	726.064
2222.04	739.327
2221.29	712.448
2220.54	769.184
2219.79	725.59
2219.05	732.158
2218.3	711.983
2217.55	745.288
2216.8	755.191
2216.05	798.501
2215.31	768.306
2214.56	724.762
2213.81	734.662
2213.06	724.525
2212.31	724.407
2211.56	740.977
2210.81	777.565
2210.06	767.428
2209.31	730.606
2208.56	813.875
2207.81	783.727
2207.07	713.576
2206.32	710.125
2205.57	783.343
2204.82	699.895
2204.06	756.429
2203.31	752.974
2202.56	726.201
2201.81	829.333
2201.06	749.275
2200.31	729.175
2199.56	742.372
2198.81	792.177
2198.06	735.473
2197.31	732.025
2196.56	835.038
2195.8	755.07
2195.05	774.901
2194.3	794.726
2193.55	731.427
2192.8	757.901
2192.04	754.453
2191.29	817.467
2190.54	760.851
2189.79	783.98
2189.03	807.102
2188.28	793.687
2187.53	733.791
2186.78	740.31
2186.02	726.912
2185.27	839.629
2184.52	802.992
2183.76	769.684
2183.01	749.656
2182.25	749.533
2181.5	802.466
2180.75	736.026
2179.99	788.944
2179.24	775.557
2178.48	752.234
2177.73	795.183
2176.97	771.864
2176.22	801.547
2175.46	784.858
2174.71	781.418
2173.95	787.911
2173.2	844.052
2172.44	873.699
2171.69	817.304
2170.93	846.946
2170.18	856.731
2169.42	770.601
2168.67	783.701
2167.91	853.003
2167.15	793.361
2166.4	803.147
2165.64	816.234
2164.88	783.059
2164.13	789.538
2163.37	789.409
2162.61	756.255
2161.86	785.848
2161.1	782.418
2160.34	818.598
2159.58	778.861
2158.83	815.03
2158.07	828.093
2157.31	761.985
2156.55	771.754
2155.79	774.925
2155.04	933.054
2154.28	883.454
2153.52	784.431
2152.76	846.915
2152	757.815
2151.24	843.343
2150.48	846.498
2149.72	895.758
2148.96	839.635
2148.21	872.419
2147.45	783.402
2146.69	812.893
2145.93	858.827
2145.17	838.946
2144.41	825.651
2143.65	812.36
2142.89	822.091
2142.13	815.381
2141.37	798.81
2140.6	831.547
2139.84	831.41
2139.08	814.845
2138.32	831.137
2137.56	873.7
2136.8	827.58
2136.04	853.712
2135.28	784.63
2134.52	804.195
2133.75	905.802
2132.99	889.246
2132.23	833.326
2131.47	869.272
2130.71	793.696
2129.94	832.915
2129.18	859.008
2128.42	839.198
2127.65	796.451
2126.89	832.368
2126.13	753.595
2125.37	907.441
2124.6	881.089
2123.84	874.394
2123.08	825.135
2122.31	841.369
2121.55	854.323
2120.78	916.365
2120.02	867.131
2119.26	840.815
2118.49	830.863
2117.73	863.433
2116.96	882.911
2116.2	872.957
2115.43	840.124
2114.67	879.207
2113.9	872.526
2113.14	859.313
2112.37	862.439
2111.61	875.362
2110.84	894.812
2110.08	839.156
2109.31	966.34
2108.55	874.785
2107.78	868.114
2107.01	894.076
2106.25	854.778
2105.48	913.353
2104.71	883.85
2103.95	864.139
2103.18	867.257
2102.41	883.413
2101.65	840.897
2100.88	918.968
2100.11	935.108
2099.34	889.347
2098.58	912
2097.81	928.133
2097.04	846.578
2096.27	882.25
2095.51	888.614
2094.74	797.343
2093.97	885.067
2093.2	862.148
2092.43	907.546
2091.66	881.377
2090.89	982.037
2090.13	890.841
2089.36	871.189
2088.59	877.546
2087.82	932.645
2087.05	932.491
2086.28	938.835
2085.51	857.479
2084.74	867.08
2083.97	834.468
2083.2	889.519
2082.43	808.225
2081.66	970.36
2080.89	928.017
2080.12	921.375
2079.35	908.248
2078.58	885.396
2077.81	875.522
2077.03	914.283
2076.26	917.374
2075.49	897.776
2074.72	975.4
2073.95	942.839
2073.18	916.768
2072.4	955.484
2071.63	952.088
2070.86	922.79
2070.09	932.349
2069.32	932.195
2068.54	938.514
2067.77	860.702
2067	912.322
2066.23	967.161
2065.45	928.192
2064.68	905.403
2063.91	863.224
2063.13	898.639
2062.36	911.419
2061.59	962.971
2060.81	943.426
2060.04	959.422
2059.26	946.345
2058.49	920.354
2057.72	1023.52
2056.94	900.68
2056.17	890.848
2055.39	926.2
2054.62	938.953
2053.84	929.119
2053.07	903.161
2052.29	951.388
2051.52	915.761
2050.74	915.609
2049.97	960.586
2049.19	976.542
2048.41	995.714
2047.64	921.447
2046.86	914.852
2046.09	959.792
2045.31	908.109
2044.53	943.376
2043.76	965.754
2042.98	952.719
2042.2	1000.83
2041.43	962.057
2040.65	961.898
2039.87	961.738
2039.09	932.635
2038.32	993.575
2037.54	961.261
2036.76	890.385
2035.98	970.584
2035.21	980.063
2034.43	915.645
2033.65	883.371
2032.87	1024.54
2032.09	963.358
2031.31	898.986
2030.53	1020.82
2029.76	950.041
2028.98	978.766
2028.2	949.727
2027.42	968.817
2026.64	975.072
2025.86	990.945
2025.08	942.685
2024.3	971.381
2023.52	942.372
2022.74	977.469
2021.96	970.898
2021.18	913.07
2020.4	999.405
2019.62	1008.85
2018.84	1031.1
2018.06	976.497
2017.28	1017.95
2016.49	963.371
2015.71	953.611
2014.93	963.052
2014.15	959.693
2013.37	1007.51
2012.59	1020.13
2011.8	978.4
2011.02	914.3
2010.24	965.29
2009.46	949.151
2008.68	1016.09
2007.89	987.172
2007.11	1041.31
2006.33	983.651
2005.55	1018.61
2004.76	932.243
2003.98	1024.66
2003.2	995.765
2002.41	995.599
2001.63	992.243
2000.84	928.279
2000.06	1033.38
1999.28	1007.69
1998.49	994.773
1997.71	997.796
1996.92	956.195
1996.14	1032.52
1995.36	1048.28
1994.57	1003.5
1993.79	996.967
1993	1015.91
1992.22	1015.74
1991.43	955.084
1990.64	1079.07
1989.86	983.409
1989.07	1002.34
1988.29	1024.44
1987.5	1005.19
1986.72	1081.35
1985.93	1039.83
1985.14	998.326
1984.36	1023.59
1983.57	1036.13
1982.78	997.828
1982	991.308
1981.21	1026.09
1980.42	1038.62
1979.64	1032.1
1978.85	993.823
1978.06	1161.91
1977.27	1126.81
1976.49	1056.8
1975.7	1101.05
1974.91	1104.04
1974.12	999.176
1973.33	1090.98
1972.54	1071.77
1971.76	1005.02
1970.97	1058.74
1970.18	1074.41
1969.39	1099.58
1968.6	1026.53
1967.81	1045.36
1967.02	1013.52
1966.23	1086.18
1965.44	1082.84
1964.65	1073.16
1963.86	1139.45
1963.07	1094.95
1962.28	996.684
1961.49	1047.13
1960.7	1081.75
1959.91	1005.67
1959.12	1131.99
1958.33	1100.18
1957.54	1112.64
1956.75	1106.14
1955.96	1061.71
1955.17	1077.33
1954.37	1089.79
1953.58	1023.28
1952.79	1064.16
1952	1073.46
1951.21	1035.4
1950.42	1054.16
1949.62	1012.96
1948.83	1091.67
1948.04	1056.79
1947.25	1056.61
1946.45	1091.13
1945.66	1122.48
1944.87	1115.98
1944.07	1131.56
1943.28	1087.25
1942.49	1112.27
1941.69	1090.04
1940.9	1137.1
1940.11	1014.09
1939.31	1042.26
1938.52	1152.28
1937.72	1145.79
1936.93	1079.5
1936.14	1082.47
1935.34	1098.02
1934.55	1104.13
1933.75	1063.06
1932.96	1106.91
1932.16	1128.73
1931.37	1131.68
1930.57	1128.35
1929.77	1049.6
1928.98	1105.98
1928.18	1061.82
1927.39	1133.88
1926.59	1108.57
1925.79	1108.38
1925	1061.11
1924.2	1145.68
1923.41	1136.07
1922.61	1129.61
1921.81	1129.42
1921.01	1144.91
1920.22	1144.72
1919.42	1100.63
1918.62	1119.26
1917.83	1087.72
1917.03	1112.62
1916.23	1059.16
1915.43	1121.64
1914.63	1146.52
1913.84	1115
1913.04	1086.63
1912.24	1145.94
1911.44	1123.84
1910.64	1070.44
1909.84	1120.33
1909.04	1095.11
1908.24	1088.67
1907.45	1160.43
1906.65	1172.75
1905.85	1116.27
1905.05	1147.34
1904.25	1131.52
1903.45	1131.33
1902.65	1128.02
1901.85	1165.32
1901.05	1124.52
1900.25	1118.08
1899.45	1149.12
1898.64	1123.95
1897.84	1167.47
1897.04	1170.39
1896.24	1132.75
1895.44	1194.96
1894.64	1182.28
1893.84	1091.64
1893.04	1147.59
1892.23	1153.63
1891.43	1234.49
1890.63	1140.78
1889.83	1165.52
1889.03	1187.13
1888.22	1162.01
1887.42	1143.13
1886.62	1149.16
1885.81	1092.92
1885.01	1223.5
1884.21	1217.07
1883.4	1101.71
1882.6	1185.54
1881.8	1123.12
1880.99	1225.58
1880.19	1132.07
1879.39	1203.4
1878.58	1134.8
1877.78	1153.26
1876.97	1190.37
1876.17	1124.91
1875.36	1165.11
1874.56	1168.02
1873.75	1177.15
1872.95	1226.63
1872.14	1164.33
1871.34	1170.34
1870.53	1182.56
1869.73	1135.82
1868.92	1188.37
1868.12	1219.2
1867.31	1156.96
1866.5	1172.27
1865.7	1206.18
1864.89	1184.28
1864.09	1261.57
1863.28	1186.98
1862.47	1180.58
1861.66	1198.97
1860.86	1201.87
1860.05	1207.86
1859.24	1241.72
1858.44	1278.66
1857.63	1207.25
1856.82	1188.48
1856.01	1175.9
1855.2	1225.21
1854.4	1259.03
1853.59	1203.15
1852.78	1227.68
1851.97	1221.29
1851.16	1236.54
1850.35	1177.61
1849.54	1229.95
1848.74	1217.38
1847.93	1257.34
1847.12	1241.68
1846.31	1278.53
1845.5	1210.39
1844.69	1222.53
1843.88	1185.29
1843.07	1262.24
1842.26	1228.09
1841.45	1200.12
1840.64	1224.59
1839.83	1267.56
1839.02	1214.93
1838.2	1273.3
1837.39	1205.27
1836.58	1291.37
1835.77	1211.03
1834.96	1201.58
1834.15	1256.83
1833.34	1213.5
1832.52	1241.01
1831.71	1203.85
1830.9	1191.34
1830.09	1317.33
1829.28	1234.02
1828.46	1236.89
1827.65	1218.22
1826.84	1258
1826.02	1276.24
1825.21	1288.33
1824.4	1211.26
1823.59	1235.64
1822.77	1281.53
1821.96	1195.28
1821.14	1231.95
1820.33	1213.31
1819.52	1206.96
1818.7	1277.38
1817.89	1301.73
1817.07	1215.56
1816.26	1273.67
1815.44	1199.81
1814.63	1300.85
1813.81	1273.02
1813	1251.34
1812.18	1294.06
1811.37	1296.91
1810.55	1278.3
1809.74	1324.06
1808.92	1192.06
1808.11	1274.59
1807.29	1246.8
1806.47	1310.91
1805.66	1203.51
1804.84	1191.06
1804.02	1224.53
1803.21	1279.42
1802.39	1248.6
1801.57	1217.79
1800.76	1260.42
1799.94	1229.62
1799.12	1315.04
1798.3	1241.43
1797.49	1265.68
1796.67	1335.77
1795.85	1332.49
1795.03	1261.99
1794.21	1338.15
1793.4	1426.51
1792.58	1291.89
1791.76	1255.03
1790.94	1233.44
1790.12	1254.6
1789.3	1291.02
1788.48	1272.49
1787.66	1223.46
1786.84	1293.41
1786.02	1296.25
1785.2	1265.53
1784.38	1283.61
1783.56	1298.64
1782.74	1270.99
1781.92	1328.67
1781.1	1297.98
1780.28	1300.81
1779.46	1315.82
1778.64	1388.68
1777.82	1300.15
1777	1321.24
1776.18	1284.49
1775.35	1281.23
1774.53	1293.18
1773.71	1308.18
1772.89	1265.37
1772.07	1335.11
1771.25	1301.43
1770.42	1383.3
1769.6	1291.87
1768.78	1319.01
1767.96	1315.75
1767.13	1285.14
1766.31	1321.38
1765.49	1230.04
1764.66	1390.77
1763.84	1305.52
1763.02	1405.48
1762.19	1317.22
1761.37	1329.14
1760.54	1410.83
1759.72	1328.69
1758.9	1380.03
1758.07	1273.65
1757.25	1315.89
1756.42	1403.58
1755.6	1366.97
1754.77	1309.16
1753.95	1308.94
1753.12	1275.39
1752.3	1381.19
1751.47	1405.18
1750.65	1377.69
1749.82	1365.35
1748.99	1443.82
1748.17	1346.73
1747.34	1352.55
1746.52	1297.87
1745.69	1400.49
1744.86	1412.35
1744.04	1400.02
1743.21	1369.55
1742.38	1372.34
1741.55	1384.19
1740.73	1405.11
1739.9	1377.68
1739.07	1326.1
1738.24	1419.5
1737.42	1380
1736.59	1403.92
1735.76	1295.01
1734.93	1454.75
1734.1	1388.12
1733.27	1405.99
1732.45	1423.85
1731.62	1411.54
1730.79	1396.23
1729.96	1423.12
1729.13	1386.71
1728.3	1404.56
1727.47	1395.28
1726.64	1404.08
1725.81	1412.88
1724.98	1304.21
1724.15	1430.47
1723.32	1370.01
1722.49	1436.01
1721.66	1423.72
1720.83	1297.08
1720	1486.43
1719.17	1410.96
1718.34	1347.56
1717.5	1416.5
1716.67	1356.12
1715.84	1391.97
1715.01	1412.77
1714.18	1454.61
1713.35	1289.09
1712.51	1412.05
1711.68	1354.74
1710.85	1489.66
1710.02	1483.4
1709.18	1483.15
1708.35	1467.89
1707.52	1365.6
1706.68	1458.39
1705.85	1431.14
1705.02	1409.9
1704.18	1460.64
1703.35	1451.4
1702.52	1433.16
1701.68	1423.93
1700.85	1417.69
1700.01	1435.43
1699.18	1447.17
1698.35	1419.96
1697.51	1422.72
1696.68	1419.48
1695.84	1428.22
1695.01	1454.92
1694.17	1448.69
1693.34	1469.39
1692.5	1439.22
1691.66	1486.84
1690.83	1432.75
1689.99	1504.28
1689.16	1480.1
1688.32	1464.9
1687.48	1479.6
1686.65	1527.16
1685.81	1491.05
1684.97	1499.76
1684.14	1505.48
1683.3	1535.08
1682.46	1472.12
1681.63	1495.75
1680.79	1477.59
1679.95	1534.04
1679.11	1557.65
1678.27	1503.68
1677.44	1476.58
1676.6	1485.28
1675.76	1502.91
1674.92	1457.94
1674.08	1499.42
1673.24	1487.24
1672.41	1552.55
1671.57	1445.03
1670.73	1513.29
1669.89	1510.06
1669.05	1518.74
1668.21	1467.86
1667.37	1553.94
1666.53	1574.51
1665.69	1541.51
1664.85	1541.24
1664.01	1558.83
1663.17	1585.33
1662.33	1534.51
1661.49	1635.34
1660.64	1578.58
1659.8	1652.62
1658.96	1557.24
1658.12	1568.86
1657.28	1515.12
1656.44	1514.86
1655.6	1511.63
1654.75	1481.68
1653.91	1615.02
1653.07	1638.49
1652.23	1566.99
1651.38	1572.65
1650.54	1661.39
1649.7	1667.04
1648.86	1580.74
1648.01	1607.16
1647.17	1571.31
1646.33	1674.79
1645.48	1635.98
1644.64	1647.55
1643.8	1540.61
1642.95	1670.69
1642.11	1643.75
1641.26	1616.81
1640.42	1604.69
1639.57	1545.22
1638.73	1648.54
1637.88	1654.18
1637.04	1650.94
1636.19	1665.45
1635.35	1676.99
1634.5	1573.21
1633.66	1682.33
1632.81	1708.65
1631.97	1681.76
1631.12	1595.77
1630.28	1695.96
1629.43	1692.71
1628.58	1701.28
1627.74	1715.76
1626.89	1691.85
1626.04	1756.5
1625.2	1682.41
1624.35	1726.39
1623.5	1723.15
1622.65	1693.35
1621.81	1672.41
1620.96	1695.72
1620.11	1786.84
1619.26	1683.35
1618.41	1724.33
1617.57	1750.55
1616.72	1676.59
1615.87	1785.31
1615.02	1773.22
1614.17	1711.07
1613.32	1690.17
1612.47	1775.25
1611.62	1795.56
1610.77	1768.76
1609.92	1771.4
1609.07	1694.6
1608.22	1803.15
1607.37	1829.31
1606.52	1767.25
1605.67	1887.48
1604.82	1857.77
1603.97	1801.61
1603.12	1768.98
1602.27	1812.74
1601.42	1859.43
1600.57	1773.94
1599.72	1838.24
1598.87	1837.92
1598.01	1773.03
1597.16	1772.73
1596.31	1819.37
1595.46	1783.85
1594.61	1900.89
1593.75	1759.78
1592.9	1867.98
1592.05	1879.39
1591.2	1849.75
1590.34	1784.95
1589.49	1834.46
1588.64	1834.15
1587.78	1763.53
1586.93	1877.45
1586.08	1768.78
1585.22	1835.82
1584.37	1879.42
1583.51	1849.82
1582.66	1790.98
1581.81	1890.15
1580.95	1845.95
1580.1	1807.61
1579.24	1836.54
1578.39	1804.06
1577.53	1830.06
1576.68	1838.52
1575.82	1797.29
1574.96	1832.04
1574.11	1860.94
1573.25	1822.65
1572.4	1763.93
1571.54	1827.87
1570.68	1853.83
1569.83	1868.1
1568.97	1742.29
1568.11	1841.2
1567.26	1759.2
1566.4	1898.91
1565.54	1898.58
1564.69	1775.79
1563.83	1825.04
1562.97	1778.09
1562.11	1821.5
1561.26	1829.93
1560.4	1835.44
1559.54	1829.3
1558.68	1820.25
1557.82	1802.47
1556.96	1851.65
1556.1	1845.51
1555.25	1845.19
1554.39	1920.53
1553.53	1859.11
1552.67	1786.06
1551.81	1931.18
1550.95	1802.9
1550.09	1805.49
1549.23	1842.97
1548.37	1839.75
1547.51	1830.72
1546.65	1783.92
1545.79	1751.65
1544.93	1829.77
1544.07	1803.32
1543.2	1922.05
1542.34	1828.83
1541.48	1883.66
1540.62	1781.77
1539.76	1804.67
1538.9	1824.67
1538.03	1867.86
1537.17	1803.74
1536.31	1797.63
1535.45	1800.22
1534.59	1854.98
1533.72	1773.52
1532.86	1779.01
1532	1885.89
1531.13	1729.16
1530.27	1850.49
1529.41	1876.23
1528.54	1786.16
1527.68	1809.01
1526.82	1886.84
1525.95	1817.07
1525.09	1802.29
1524.22	1799.09
1523.36	1801.67
1522.49	1853.41
1521.63	1754.79
1520.76	1794.96
1519.9	1777.31
1519.03	1866.58
1518.17	1929.81
1517.3	1854.38
1516.44	1836.73
1515.57	1833.53
1514.71	1824.55
1513.84	1818.46
1512.97	1740.23
1512.11	1788.98
1511.24	1759.82
1510.37	1874.9
1509.51	1874.57
1508.64	1874.25
1507.77	1796.09
1506.91	1735.25
1506.04	1913.63
1505.17	1872.96
1504.3	1838.06
1503.43	1806.06
1502.57	1848.95
1501.7	1785.28
1500.83	1756.18
1499.96	1879.65
1499.09	1772.84
1498.22	1809.95
1497.35	1703.18
1496.49	1858.22
1495.62	1840.64
1494.75	1909.34
1493.88	1926.26
1493.01	1859.81
1492.14	1830.75
1491.27	1856.3
1490.4	1901.94
1489.53	1844.17
1488.66	1927.14
1487.79	1794.71
1486.92	1843.21
1486.04	1885.95
1485.17	1882.75
1484.3	1870.95
1483.43	1844.81
1482.56	1833.01
1481.69	1892.92
1480.82	1886.86
1479.94	1923.81
1479.07	1797.35
1478.2	1817.1
1477.33	1859.77
1476.45	1890.96
1475.58	1839.07
1474.71	1927.54
1473.84	1812.66
1472.96	1892.52
1472.09	1826.35
1471.22	1900.45
1470.34	1880.09
1469.47	1859.74
1468.59	1796.48
1467.72	1904.85
1466.85	1901.67
1465.97	1849.87
1465.1	1972.47
1464.22	1909.25
1463.35	1826.05
1462.47	1931.45
1461.6	1796.85
1460.72	1882.23
1459.85	1881.9
1458.97	1935.82
1458.1	1835.57
1457.22	1940.86
1456.34	1957.65
1455.47	1925.92
1454.59	1877.09
1453.71	1956.63
1452.84	1942.03
1451.96	1878.97
1451.08	1924.25
1450.21	1909.67
1449.33	1943.54
1448.45	1766.54
1447.58	1920.07
1446.7	1820.05
1445.82	1905.17
1444.94	1930.46
1444.06	1921.59
1443.18	1881.41
1442.31	2003.45
1441.43	1889.29
1440.55	1886.12
1439.67	1922.77
1438.79	1942.34
1437.91	1930.63
1437.03	2038.32
1436.15	1972.6
1435.27	1898.37
1434.39	1952.02
1433.51	1928.96
1432.63	1832.05
1431.75	1877.17
1430.87	1993.26
1429.99	1992.91
1429.11	1876.19
1428.23	1932.63
1427.35	1926.61
1426.47	2070.96
1425.59	1945.8
1424.7	1914.27
1423.82	2061.38
1422.94	1933.45
1422.06	1901.93
1421.18	1944.11
1420.29	1974.94
1419.41	1892.44
1418.53	1872.29
1417.65	1951.26
1416.76	1933.93
1415.88	1976.06
1415	1961.56
1414.11	1966.88
1413.23	1946.73
1412.35	1932.25
1411.46	1968.69
1410.58	1940.06
1409.7	2044.35
1408.81	1987.45
1407.93	1989.93
1407.04	1856.76
1406.16	1983.59
1405.27	2045.4
1404.39	1980.07
1403.5	1988.2
1402.62	1982.21
1401.73	2024.21
1400.85	2069.02
1399.96	2026.33
1399.07	2054.19
1398.19	1955.09
1397.3	2070.4
1396.41	2067.22
1395.53	1987.91
1394.64	2091.88
1393.75	1978.76
1392.87	2088.33
1391.98	1930.17
1391.09	2014.35
1390.2	1932.32
1389.32	1934.8
1388.43	2061.17
1387.54	2015.77
1386.65	1939.42
1385.76	2006.62
1384.88	2062.55
1383.99	2028.43
1383.1	2146.22
1382.21	2022.1
1381.32	2041.43
1380.43	1998.9
1379.54	2051.96
1378.65	2051.61
1377.76	2028.77
1376.87	2135.17
1375.98	2087.05
1375.09	2055.79
1374.2	2089.13
1373.31	2080.34
1372.42	2124.89
1371.53	2043.13
1370.64	2079.26
1369.75	2092.92
1368.86	2241.22
1367.97	2086.58
1367.07	2083.42
1366.18	2083.05
1365.29	2051.85
1364.4	2115.96
1363.51	1972.68
1362.61	2101.21
1361.72	2092.44
1360.83	2167.69
1359.94	2167.31
1359.04	2144.54
1358.15	2124.57
1357.26	2222.15
1356.36	2157.41
1355.47	2143.04
1354.58	2212.6
1353.68	2105.94
1352.79	2178.27
1351.89	2121.98
1351	2065.7
1350.11	2093.29
1349.21	2159.98
1348.32	2159.61
1347.42	2198.34
1346.53	2105.79
1345.63	2205.95
1344.73	2149.72
1343.84	2065.61
1342.94	2179.67
1342.05	2173.71
1341.15	2215.18
1340.26	2050.22
1339.36	2169.78
1338.46	2152.67
1337.57	2247.09
1336.67	2202.1
1335.77	2196.14
1334.87	2101.01
1333.98	2223.23
1333.08	2220.05
1332.18	2186.25
1331.28	2233.2
1330.39	2232.81
1329.49	2168.4
1328.59	2248.73
1327.69	2137.03
1326.79	2203.43
1325.89	2189.13
1325	2152.6
1324.1	2291.25
1323.2	2162.96
1322.3	2218.18
1321.4	2220.57
1320.5	2297.99
1319.6	2253.13
1318.7	2244.4
1317.8	2152.36
1316.9	2196.41
1316	2201.58
1315.1	2195.64
1314.2	2100.9
1313.29	2172.68
1312.39	2172.3
1311.49	2246.81
1310.59	2138.26
1309.69	2221.07
1308.79	2145.82
1307.89	2239.69
1306.98	2167.24
1306.08	2175.18
1305.18	2191.42
1304.28	2155.03
1303.37	2165.73
1302.47	2126.58
1301.57	2214.8
1300.66	2239.32
1299.76	2142.07
1298.86	2147.23
1297.95	2080.45
1297.05	2165.84
1296.15	2212.47
1295.24	2206.55
1294.34	2114.93
1293.43	2150.5
1292.53	2152.88
1291.62	2088.95
1290.72	2160.42
1289.81	2093.74
1288.91	2176.23
1288	2153.76
1287.1	2015.34
1286.19	2274.45
1285.29	2196.78
1284.38	2116.38
1283.47	2171.18
1282.57	2173.56
1281.66	2131.81
1280.75	2134.19
1279.85	2114.52
1278.94	2100.37
1278.03	2168.89
1277.13	2140.96
1276.22	2090.99
1275.31	2074.1
1274.4	2150.85
1273.5	2155.98
1272.59	2133.57
1271.68	2061.63
1270.77	2168.6
1269.86	2198.49
1268.95	2132.08
1268.04	2098.69
1267.14	2081.82
1266.23	2128.2
1265.32	2125.08
1264.41	2050.49
1263.5	2187.54
1262.59	2085.49
1261.68	2189.52
1260.77	2073.77
1259.86	2059.68
1258.95	2149.92
1258.04	2116.6
1257.13	2099.76
1256.21	2088.42
1255.3	2093.54
1254.39	2123.34
1253.48	1972.11
1252.57	2111.63
1251.66	2089.32
1250.75	2146.52
1249.83	2063.92
1248.92	2123.84
1248.01	2044.01
1247.1	2145.01
1246.18	2095.33
1245.27	2094.96
1244.36	2116.5
1243.44	2091.49
1242.53	2069.22
1241.62	2093.49
1240.7	2098.59
1239.79	2051.72
1238.88	2100.59
1237.96	2026.38
1237.05	2083.45
1236.13	2033.87
1235.22	2047.18
1234.3	2087.81
1233.39	2073.78
1232.47	2106.2
1231.56	2064.86
1230.64	2012.61
1229.73	2053.21
1228.81	2061.04
1227.89	2098.88
1226.98	2022.1
1226.06	2092.69
1225.15	1945.01
1224.23	2004.67
1223.31	2042.49
1222.4	2044.86
1221.48	1959.99
1220.56	1995.08
1219.64	2081.93
1218.73	1983.48
1217.81	2043.06
1216.89	2053.59
1215.97	1987.88
1215.05	1957.58
1214.14	1968.12
1213.22	2038.54
1212.3	2062.67
1211.38	1969.8
1210.46	2056.5
1209.54	1979.98
1208.62	2050.33
1207.7	2006.47
1206.78	1943.6
1205.86	1992.17
1204.94	2029.87
1204.02	2026.79
1203.1	2031.87
1202.18	2001.63
1201.26	1903.52
1200.34	1992.78
1199.42	1946.28
1198.5	1945.94
1197.58	1904.89
1196.66	1980.52
1195.73	1934.06
1194.81	1939.14
1193.89	1919.82
1192.97	2011.65
1192.05	1913.72
1191.12	1954.03
1190.2	2026.85
1189.28	1969.59
1188.35	2012.59
1187.43	1982.44
1186.51	1900.86
1185.59	2027.76
1184.66	1886.65
1183.74	1999.98
1182.81	1896.81
1181.89	1972.22
1180.97	2028.68
1180.04	1895.8
1179.12	1914.39
1178.19	1962.72
1177.27	2013.73
1176.34	1945.81
1175.42	2007.61
1174.49	1872.18
1173.57	1950.18
1172.64	2001.14
1171.71	2025.09
1170.79	1976.14
1169.86	1932.6
1168.94	1886.38
1168.01	1942.71
1167.08	1953.16
1166.16	2017.54
1165.23	1960.56
1164.3	1965.6
1163.37	1846.64
1162.45	1919.08
1161.52	1926.83
1160.59	1894.15
1159.66	1996.19
1158.73	1923.11
1157.81	1879.68
1156.88	2065.13
1155.95	1975.93
1155.02	1905.6
1154.09	1867.59
1153.16	1939.9
1152.23	1950.32
1151.3	1888.11
1150.37	1952.32
1149.44	1981.55
1148.51	1930.12
1147.58	1910.96
1146.65	1940.18
1145.72	1939.84
1144.79	2009.34
1143.86	1995.55
1142.93	1987.14
1142	1930.41
1141.07	1983.75
1140.14	1951.2
1139.2	1873.03
1138.27	1982.7
1137.34	1926.01
1136.41	1990.04
1135.48	1941.42
1134.54	1879.41
1133.61	1924.65
1132.68	1935.03
1131.75	1913.25
1130.81	2028.11
1129.88	1915.25
1128.95	1933.65
1128.01	1906.53
1127.08	1839.26
1126.14	1929.95
1125.21	1908.19
1124.28	1942.64
1123.34	1971.72
1122.41	1912.53
1121.47	1877.42
1120.54	1804.89
1119.6	1908.83
1118.67	1953.93
1117.73	1836
1116.8	1833
1115.86	1867.4
1114.92	1893.78
1113.99	1842.7
1113.05	1898.45
1112.11	1892.77
1111.18	1841.72
1110.24	1860.08
1109.3	1849.07
1108.37	1944.78
1107.43	1851.08
1106.49	1829.42
1105.55	1874.42
1104.62	1834.1
1103.68	1823.11
1102.74	1793.47
1101.8	1843.78
1100.86	1811.48
1099.93	1856.44
1098.99	1864.1
1098.05	1879.74
1097.11	1882.07
1096.17	1871.09
1095.23	1931.96
1094.29	1883.72
1093.35	1840.83
1092.41	1853.8
1091.47	1848.15
1090.53	1869.09
1089.59	1905.97
1088.65	1778.06
1087.71	1825.57
1086.77	1939.49
1085.83	1854.14
1084.88	1880.37
1083.94	1861.45
1083	1839.88
1082.06	1842.21
1081.12	1889.65
1080.18	1870.74
1079.23	1833.26
1078.29	1843.55
1077.35	1877.69
1076.41	1821.67
1075.46	1847.86
1074.52	1871.39
1073.58	1815.4
1072.63	1841.57
1071.69	1923.37
1070.75	1814.43
1069.8	1835.29
1068.86	1813.78
1067.91	1818.75
1066.97	1953.42
1066.02	1992.77
1065.08	1862.76
1064.13	1870.37
1063.19	1907.06
1062.24	1885.57
1061.3	1811.2
1060.35	1869.03
1059.41	1831.69
1058.46	1804.94
1057.51	1849.54
1056.57	1801.65
1055.62	1859.44
1054.67	1853.83
1053.73	1829.73
1052.78	1871.64
1051.83	1858.11
1050.89	1823.47
1049.94	1807.32
1048.99	1946.81
1048.04	1888.43
1047.09	1864.36
1046.15	1856.12
1045.2	1850.52
1044.25	1834.37
1043.3	1839.32
1042.35	1838.99
1041.4	1828.12
1040.45	1835.7
1039.5	1782.7
1038.55	1779.75
1037.6	1879.46
1036.66	1797.54
1035.7	1884.05
1034.75	1802.16
1033.8	1872.86
1032.85	1840.96
1031.9	1830.12
1030.95	1811.38
1030	1813.69
1029.05	1884.32
1028.1	1844.57
1027.15	1810.09
1026.19	1828.15
1025.24	1827.82
1024.29	1864.26
1023.34	1845.55
1022.39	1845.22
1021.43	1810.77
1020.48	1784.21
1019.53	1757.65
1018.57	1791.44
1017.62	1798.98
1016.67	1798.66
1015.71	1837.66
1014.76	1769.19
1013.81	1816.04
1012.85	1868.12
1011.9	1810.15
1010.94	1812.45
1009.99	1696.9
1009.03	1793.47
1008.08	1816.71
1007.12	1819
1006.17	1779.42
1005.21	1794.8
1004.26	1831.1
1003.3	1820.31
1002.34	1874.9
1001.39	1754.3
1000.43	1748.75
999.476	1829.46
998.519	1776.87
997.562	1734.75
996.605	1771.01
995.648	1809.87
994.69	1754.71
993.733	1796.16
992.775	1780.18
991.817	1816.4
990.859	1735.18
989.901	1834.01
988.942	1836.29
987.983	1749.9
987.025	1835.63
986.066	1790.98
985.107	1816.72
984.147	1790.34
983.188	1829.1
982.228	1841.8
981.268	1825.84
980.308	1765.61
979.348	1786.13
978.388	1775.39
977.427	1801.1
976.466	1871.04
975.506	1779.64
974.545	1794.93
973.583	1831.02
972.622	1799.48
971.66	1749.76
970.699	1804.04
969.737	1827.1
968.775	1850.16
967.812	1826.45
966.85	1833.91
965.887	1758.27
964.925	1815.08
963.962	1812.15
962.999	1835.19
962.035	1845.24
961.072	1754.09
960.108	1686.32
959.144	1833.87
958.18	1859.47
957.216	1921.37
956.252	1765.48
955.287	1819.59
954.323	1806.31
953.358	1824.12
952.393	1873.01
951.428	1800.15
950.462	1849.03
949.497	1755.49
948.531	1817.3
947.565	1840.27
946.599	1819.23
945.633	1782.68
944.666	1839.27
943.7	1792.39
942.733	1861.89
941.766	1763.3
940.799	1770.74
939.832	1873.8
938.864	1826.95
937.897	1818.87
936.929	1808.21
935.961	1745.9
934.993	1820.47
934.024	1874.36
933.056	1739.8
932.087	1881.43
931.118	1824.32
930.149	1821.41
929.18	1733.38
928.211	1792.39
927.241	1815.27
926.271	1758.23
925.302	1848.12
924.331	1822.02
923.361	1813.96
922.391	1829.09
921.42	1821.03
920.449	1794.95
919.478	1846.13
918.507	1771.14
917.536	1745.08
916.565	1780.79
915.593	1826.78
914.621	1759.57
913.649	1802.98
912.677	1905.51
911.705	1786.9
910.732	1719.74
909.759	1783.68
908.786	1839.89
907.813	1734.22
906.84	1772.44
905.867	1841.47
904.893	1756.4
903.919	1848.5
902.945	1750.63
901.971	1793.94
900.997	1770.52
900.023	1831.78
899.048	1857.1
898.073	1736.22
897.098	1823.09
896.123	1804.82
895.148	1853.19
894.172	1722.16
893.196	1791.03
892.221	1757.4
891.244	1777.57
890.268	1807.98
889.292	1830.7
888.315	1743.33
887.339	1814.68
886.362	1809.23
885.384	1854.96
884.407	1754.86
883.43	1810.81
882.452	1815.6
881.474	1815.27
880.496	1707.58
879.518	1875.95
878.54	1786.17
877.561	1819.06
876.583	1757.43
875.604	1856.72
874.625	1797.65
873.645	1787.11
872.666	1817.42
871.686	1801.78
870.707	1883.1
869.727	1745
868.747	1951.29
867.766	1752.02
866.786	1891.94
865.805	1838.06
864.824	1865.77
863.843	1771.14
862.862	1903.31
861.881	1801.07
860.899	1900.07
859.917	1843.7
858.936	1835.73
857.953	1809.94
856.971	1855.43
855.989	1824.56
855.006	1808.96
854.023	1826.44
853.04	1932.93
852.057	1828.32
851.074	1817.82
850.09	1903.91
849.107	1743.46
848.123	1837.16
847.139	1887.64
846.155	1821.25
845.17	1803.14
844.186	1790.12
843.201	1830.41
842.216	1852.93
841.231	1847.51
840.246	1842.1
839.26	1844.31
838.275	1750.13
837.289	1820.81
836.303	1736.81
835.317	1837.9
834.33	1781.8
833.344	1837.23
832.357	1819.16
831.37	1811.23
830.383	1929.94
829.396	1818.17
828.408	1855.82
827.421	1761.82
826.433	1845.02
825.445	1804.2
824.457	1844.35
823.468	1790.9
822.48	1828.51
821.491	1855.99
820.502	1870.82
819.513	1845.2
818.524	1837.29
817.535	1847.06
816.545	1773.46
815.555	1818.6
814.565	1825.85
813.575	1817.94
812.585	1812.56
811.594	1744.09
810.604	1872.47
809.613	1859.51
808.622	1813.77
807.631	1861.36
806.639	1797.98
805.648	1832.95
804.656	1910.76
803.664	1797
802.672	1789.11
801.68	1808.94
800.687	1806.09
799.694	1775.54
798.702	1848.24
797.709	1883.15
796.715	1822.4
795.722	1812
794.728	1861.99
793.735	1740.9
792.741	1836.16
791.747	1820.74
790.752	1827.95
789.758	1837.67
788.763	1882.58
787.768	1842.03
786.773	1831.65
785.778	1874.02
784.783	1881.21
783.787	1762.84
782.792	1822.78
781.796	1902.78
780.8	1827.13
779.803	1839.35
778.807	1854.07
777.81	1878.81
776.813	1913.58
775.816	1865.59
774.819	1867.76
773.822	1897.5
772.824	1824.47
771.827	1859.22
770.829	1873.91
769.831	1856.04
768.832	1873.23
767.834	1887.91
766.835	1872.54
765.836	1857.18
764.837	1856.85
763.838	1871.52
762.839	1926.21
761.839	1863.33
760.84	1855.49
759.84	1857.65
758.84	1879.81
757.839	1869.47
756.839	1859.13
755.838	1856.3
754.837	1878.44
753.836	1783.19
752.835	1842.79
751.834	1797.52
750.832	1869.58
749.83	1796.86
748.828	1861.41
747.826	1908.47
746.824	1810.84
745.822	1875.35
744.819	1840.1
743.816	1869.68
742.813	1906.73
741.81	1896.41
740.806	1853.71
739.803	1838.42
738.799	1855.52
737.795	1912.46
736.791	1889.7
735.787	1899.31
734.782	1859.14
733.778	1816.5
732.773	1853.49
731.768	1793.45
730.762	1882.65
729.757	1907.17
728.751	1886.94
727.746	1879.13
726.74	1799.26
725.733	1880.93
724.727	1751.4
723.721	1890.18
722.714	1855.06
721.707	1854.72
720.7	1854.39
719.693	1819.3
718.685	1751.96
717.678	1796.3
716.67	1877.83
715.662	1914.69
714.654	1837.47
713.645	1886.72
712.637	1928.51
711.628	1843.9
710.619	1855.95
709.61	1920.02
708.601	1867.65
707.591	1874.74
706.582	1916.49
705.572	1896.33
704.562	1856.38
703.551	1880.79
702.541	1868.07
701.531	1902.37
700.52	1882.23
699.509	1953.6
698.498	1861.76
697.486	1816.92
696.475	1942.64
695.463	1855.79
694.451	1929.57
693.439	1823
692.427	1899.23
691.414	1854.43
690.402	1915.81
689.389	1917.93
688.376	1915.11
687.363	1998.65
686.349	1926.74
685.336	1921.46
684.322	1933.43
683.308	1876.37
682.294	1964.77
681.28	1818.99
680.265	1929.55
679.251	1956.3
678.236	1899.28
677.221	1930.95
676.206	1942.91
675.19	1816.99
674.175	1952.04
673.159	1946.76
672.143	1835.67
671.127	1960.81
670.11	1918.63
669.094	1888.77
668.077	1932.68
667.06	1870.86
666.043	1922.14
665.026	1870.18
664.008	1879.66
662.991	1913.71
661.973	1876.51
660.955	1795.13
659.936	1888.1
658.918	1838.66
657.899	1899.68
656.881	1891.97
655.862	1889.16
654.843	1910.89
653.823	1866.4
652.804	1885.67
651.784	1944.16
650.764	1899.68
649.744	1840.52
648.724	1908.79
647.703	1901.08
646.683	1886.04
645.662	1991
644.641	1848.62
643.619	1872.76
642.598	1847.94
641.576	1969.95
640.555	1981.82
639.533	1922.75
638.511	1888.15
637.488	1946.49
636.466	1931.47
635.443	1872.44
634.42	1938.09
633.397	1825.33
632.374	1856.75
631.35	1880.83
630.326	1860.95
629.303	1941.19
628.279	1882.24
627.254	2003.93
626.23	1876.66
625.205	1966.59
624.18	1900.36
623.155	1819.53
622.13	2028.91
621.105	1860.3
620.079	1959.91
619.054	1869.37
618.028	1934.82
617.002	1929.59
615.975	1958.46
614.949	1882.6
613.922	1943.13
612.895	1879.47
611.868	1944.85
610.841	1917.72
609.813	1910.06
608.786	1885.38
607.758	1902.06
606.73	1913.87
605.702	1894.06
604.673	1898.58
603.645	1864.2
602.616	1987.79
601.587	1975.27
600.558	1943.33
599.528	1882.25
598.499	1974.18
597.469	1900.98
596.439	1939.47
595.409	1905.13
594.379	1941.18
593.348	1875.31
592.318	1855.56
591.287	1971.63
590.256	1886.4
589.224	1895.75
588.193	1876.01
587.161	1885.35
586.129	1814.74
585.097	1872.54
584.065	1891.57
583.033	1876.69
582	1953.82
580.967	1892.94
579.935	1836.93
578.901	1964.84
577.868	1945.12
576.834	1867.36
575.801	1867.01
574.767	1902.93
573.733	1849.4
572.698	1926.4
571.664	1930.88
570.629	1916.02
569.594	1947.07
568.559	1905.65
567.524	1941.52
566.488	1933.92
565.453	1907.01
564.417	1875.28
563.381	1978.69
562.345	1898.71
561.308	1874.24
560.272	1881.13
559.235	1904.89
558.198	1926.24
557.161	1947.57
556.123	2024.33
555.086	1876.98
554.048	1929.63
553.01	1917.23
551.972	1854.26
550.933	1976.71
549.895	1887.27
548.856	1886.92
547.817	1932.29
546.778	1886.22
545.739	1893.09
544.699	1993.75
543.66	1877.96
542.62	1954.54
541.58	1949.37
540.539	1896.14
539.499	1975.08
538.458	1847.39
537.417	1933.52
536.376	1983.59
535.335	1913.59
534.294	1910.84
533.252	1910.48
532.21	1958.12
531.168	1856.99
530.126	1933.41
529.084	1988.21
528.041	1925.49
526.998	1941.92
525.955	1989.5
524.912	1943.59
523.869	1955.21
522.825	1916.52
521.782	1887.42
520.738	1978.07
519.693	1934.61
518.649	1948.61
517.605	1933.89
516.56	1907.21
515.515	1906.85
514.47	1956.73
513.425	1918.1
512.379	1886.66
511.333	1941.3
510.287	1931.37
509.241	1914.28
508.195	1913.93
507.149	1911.18
506.102	2018.31
505.055	1929.58
504.008	1857.59
502.961	1852.47
501.913	1828.26
500.866	1870.87
499.818	1946.87
498.77	1929.81
497.722	1924.68
496.673	1974.4
495.625	1919.2
494.576	1880.7
493.527	1987.6
492.478	1868.09
491.428	1891.56
490.379	1862.63
489.329	1926.58
488.279	1909.56
487.229	1863.97
486.178	1861.24
485.128	1877.55
484.077	1858.17
483.026	1829.28
481.975	1862.23
480.923	1892.8
479.872	1878.18
478.82	1837.42
477.768	1925.01
476.716	1969.8
475.664	1853.03
474.611	1881.18
473.558	1923.58
472.506	1911.35
471.452	1915.74
470.399	1875.03
469.346	1922.14
468.292	1895.69
467.238	1748.26
466.184	1909.21
465.13	1942.05
464.075	1896.65
463.02	1874.96
461.966	1850.91
460.91	1971.41
459.855	1997.1
458.8	1880.66
457.744	1982.14
456.688	1906.01
455.632	2005.08
454.576	1988.14
453.519	1980.67
452.463	1902.22
451.406	1875.84
450.349	2057.6
449.292	1953.18
448.234	1933.9
447.176	1961.9
446.119	1933.18
445.061	1852.48
444.002	1960.8
442.944	1991.14
441.885	1962.43
440.826	1959.7
439.767	1980.58
438.708	1883.44
437.649	1901.97
436.589	1962.96
435.529	1922.49
434.469	1957.51
433.409	1940.63
432.349	1956.77
431.288	1937.55
430.227	1915.98
429.166	1962.75
428.105	1964.73
427.044	1973.79
425.982	1954.58
424.92	1975.41
423.858	1895
422.796	1988.79
421.734	1964.88
420.671	1910.4
419.608	1863
418.545	1944.97
417.482	1899.93
416.419	1911.33
415.355	1915.67
414.291	1995.21
413.227	1992.49
412.163	1869.96
411.099	1947.12
410.034	1904.48
408.969	1885.34
407.904	1981.23
406.839	1915.15
405.774	1947.64
404.708	1855.78
403.642	1975.06
402.576	1967.65
401.51	1946.18
400.444	1905.96
399.377	1952.48
398.31	1954.46
397.243	1867.4
396.176	1860.02
395.109	1915.89
394.041	1985.78
392.973	1891.76
391.905	1905.45
390.837	1877.01
389.769	1921.11
388.7	1925.43
387.631	1969.51
386.562	1997.21
385.493	1940.72
384.424	1919.31
383.354	1972.71
382.284	1923.26
381.214	1918.23
380.144	1948.24
379.074	1908.17
378.003	1893.8
376.932	1984.5
375.861	1893.09
374.79	1944.08
373.719	1878.38
372.647	1917.69
371.575	1905.66
370.503	1940.29
369.431	1963.24
368.359	1939.56
367.286	1901.9
366.213	1938.83
365.14	1877.89
364.067	1903.16
362.994	1907.46
361.92	1944.36
360.846	1920.71
359.772	1885.43
358.698	1859.48
357.624	2003.39
356.549	1933.23
355.474	1900.3
354.399	1888.31
353.324	1943.76
352.248	1855.06
351.173	1868.66
350.097	1979.84
349.021	1912.1
347.945	1965.16
346.868	1871.89
345.791	1908.69
344.715	1936.19
343.638	1942.79
342.56	1921.54
341.483	1965.27
340.405	1890.66
339.327	1862.47
338.249	2005.9
337.171	1938.28
336.092	1914.74
335.014	1916.69
333.935	1874.62
332.856	1976.21
331.777	1950.36
330.697	1866.62
329.617	1815.32
328.537	1914.53
327.457	1872.51
326.377	1899.92
325.297	1966.66
324.216	1852.94
323.135	1871.09
322.054	1903.12
320.972	1888.89
319.891	1967.12
318.809	1932.08
317.727	1880.89
316.645	1956.77
315.563	1979.5
314.48	1879.82
313.397	1987.99
312.315	1996.85
311.231	1908.76
310.148	1954.56
309.064	1954.19
307.981	1912.3
306.897	1886.57
305.812	1987.67
304.728	1867.41
303.643	1876.28
302.559	1864.4
301.474	1953.91
300.388	1916.68
299.303	1856.44
298.217	1892.93
297.132	1931.71
296.046	1910.63
294.959	1958.6
293.873	1930.62
292.786	1932.56
291.699	1893.09
290.612	1924.93
289.525	1979.75
288.438	1921.9
287.35	1884.76
286.262	1875.21
285.174	1805.93
284.086	1885.99
282.997	1860.37
281.909	1905.95
280.82	1946.91
279.731	1907.52
278.641	1875.03
277.552	1893.03
276.462	1883.5
275.372	1951.95
274.282	1985.98
273.192	1919.11
272.101	1930.21
271.01	1879.42
269.919	1998.23
268.828	1871.84
267.737	1963.11
266.645	1896.32
265.553	1875.36
264.461	1831.5
263.369	1973.07
262.277	1858.27
261.184	1871.65
260.091	1923.91
258.998	1902.96
257.905	1877.45
256.812	1982.26
255.718	1888.17
254.624	1890.09
253.53	1944.58
252.436	1882.52
251.341	1850.19
250.247	1893.23
249.152	1949.95
248.057	1883.38
246.961	1883.02
245.866	1891.8
244.77	1813.86
243.674	1875.11
242.578	1893
241.482	1840.2
240.385	1887.72
239.288	1914.72
238.191	1887.01
237.094	1870.7
235.997	1868.07
234.899	1865.44
233.801	1937.95
232.703	1917.1
231.605	1871.2
230.507	1854.92
229.408	1847.74
228.309	1879.24
227.21	1783.35
226.111	1887.62
225.011	1957.75
223.912	1864.17
222.812	1834.27
221.712	1906.64
220.611	1826.76
219.511	1915.01
218.41	1869.22
217.309	1971.05
216.208	1979.76
215.107	1904.47
214.005	1870.07
212.903	1899.21
211.801	1937.42
210.699	1875.81
209.597	1870.91
208.494	1879.63
207.391	1872.47
206.288	1901.58
205.185	1844.57
204.082	1894.06
202.978	1875.58
201.874	1800.48
200.77	1929.21
199.666	1869.98
198.561	1901.31
197.456	1824.01
196.352	1880.23
195.246	1850.46
194.141	1838.8
193.036	1904.03
191.93	1903.67
190.824	1873.92
189.718	1887.12
188.611	1839.31
187.505	1857.04
186.398	1802.47
185.291	1899.24
184.184	1810.82
183.076	1794.67
181.968	1807.87
180.861	1800.76
179.752	1910.97
178.644	1831.65
177.536	1842.58
176.427	1912.13
175.318	1853.15
174.209	1839.27
173.1	1798.36
171.99	1858.85
170.88	1863
169.77	1822.11
168.66	1864.54
167.55	1893.46
166.439	1890.85
165.328	1876.98
164.217	1809.12
163.106	1802.03
161.994	1884.91
160.883	1884.55
159.771	1897.68
158.659	1863.6
157.547	1845.26
156.434	1813.45
155.321	1871.52
154.208	1877.9
153.095	1938.18
151.982	1791.86
150.868	1912.74
149.754	1829.33
148.64	1817.76
147.526	1801.71
146.412	1852.96
145.297	1783.08
144.182	1847.77
143.067	1919.16
141.952	1808.95
140.836	1766.03
139.721	1801.54
138.605	1709.35
137.489	1791.89
136.372	1883.37
135.256	1840.47
134.139	1784.15
133.022	1886.77
131.905	1830.46
130.787	1814.45
129.67	1820.82
128.552	1802.58
127.434	1829.06
126.316	1824.24
125.197	1745.66
124.078	1850.36
122.959	1733.82
121.84	1746.9
120.721	1786.76
119.601	1804.29
118.482	1754.82
117.362	1787.97
116.241	1778.7
115.121	1742.66
114	1711.1
112.88	1793.3
111.758	1763.96
110.637	1750.25
109.516	1689.72
108.394	1671.57
107.272	1655.65
106.15	1610.78
105.028	1539.19
103.905	1603.48
102.782	1476.25
101.659	1473.75
100.536	1391.11
