3201.26	46.3241
3200.67	42.1129
3200.08	50.5278
3199.48	67.3602
3198.89	37.8844
3198.3	29.4612
3197.7	42.0811
3197.11	29.4523
3196.51	63.1025
3195.92	46.2682
3195.32	50.4668
3194.73	16.8197
3194.13	50.4515
3193.54	42.0366
3192.95	29.4212
3192.35	67.2382
3191.76	12.6053
3191.16	71.419
3190.56	50.4058
3189.97	46.1983
3189.37	50.3905
3188.78	29.39
3188.18	33.5835
3187.59	29.3812
3186.99	50.3601
3186.4	54.5485
3185.8	46.1494
3185.2	33.5582
3184.61	29.3589
3184.01	37.7415
3183.42	20.9643
3182.82	-8.38447
3182.22	62.874
3181.63	12.5729
3181.03	62.855
3180.43	41.897
3179.84	41.8906
3179.24	75.3917
3178.64	20.939
3178.05	50.246
3177.45	0
3176.85	71.1602
3176.25	75.3347
3175.66	12.5539
3175.06	46.024
3174.46	33.4669
3173.86	50.1928
3173.27	29.2747
3172.67	54.359
3172.07	50.17
3171.47	12.5406
3170.87	41.7956
3170.28	12.5368
3169.68	37.6047
3169.08	8.35533
3168.48	8.35407
3167.88	70.9988
3167.28	41.7577
3166.68	50.1016
3166.09	50.0941
3165.49	54.2603
3164.89	29.2127
3164.29	20.863
3163.69	58.4077
3163.09	20.8567
3162.49	50.0486
3161.89	41.7008
3161.29	29.1861
3160.69	45.857
3160.09	41.6819
3159.49	50.0107
3158.89	45.8362
3158.29	24.9977
3157.69	33.3253
3157.09	33.3202
3156.49	37.4796
3155.89	66.6203
3155.29	45.7945
3154.69	8.32501
3154.09	41.6187
3153.49	33.2899
3152.89	41.6061
3152.29	54.0798
3151.69	37.4342
3151.08	4.15872
3150.48	62.3713
3149.88	45.732
3149.28	49.8819
3148.68	49.8744
3148.08	54.0224
3147.48	12.4648
3146.87	29.0802
3146.27	24.9221
3145.67	66.4488
3145.07	62.2863
3144.47	58.125
3143.86	29.0581
3143.26	58.1074
3142.66	49.7988
3142.06	41.4927
3141.45	58.0809
3140.85	33.1841
3140.25	0
3139.64	45.6143
3139.04	37.3151
3138.44	45.6004
3137.84	41.4486
3137.23	37.2981
3136.63	29.0052
3136.03	41.4298
3135.42	41.4235
3134.82	45.5589
3134.21	57.9753
3133.61	33.1237
3133.01	45.5382
3132.4	49.6704
3131.8	45.5243
3131.19	4.13795
3130.59	24.8239
3129.99	37.2302
3129.38	66.177
3128.78	53.7606
3128.17	37.2132
3127.57	16.5367
3126.96	24.8013
3126.36	53.728
3125.75	33.0584
3125.15	28.9217
3124.54	45.4414
3123.94	16.5216
3123.33	-4.12978
3122.73	37.1624
3122.12	53.6709
3121.52	37.1511
3120.91	45.4
3120.3	41.2665
3119.7	45.3862
3119.09	20.627
3118.49	32.9981
3117.88	45.3655
3117.27	53.6056
3116.67	74.2119
3116.06	32.9781
3115.45	45.3379
3114.85	32.968
3114.24	12.3611
3113.63	32.958
3113.03	28.8339
3112.42	12.3555
3111.81	24.7072
3111.21	32.938
3110.6	49.3994
3109.99	0
3109.38	45.269
3108.78	20.5737
3108.17	45.2553
3107.56	41.1349
3106.95	65.8058
3106.34	53.4591
3105.74	12.3348
3105.13	49.3318
3104.52	16.4414
3103.91	45.2071
3103.3	73.964
3102.7	49.3018
3102.09	45.1864
3101.48	32.8579
3100.87	53.3859
3100.26	53.3778
3099.65	45.1589
3099.04	4.10473
3098.43	12.3123
3097.82	41.0348
3097.21	53.3372
3096.61	45.1246
3096	12.3048
3095.39	45.1108
3094.78	28.7025
3094.17	69.6955
3093.56	49.1893
3092.95	36.8864
3092.34	53.2722
3091.73	36.8751
3091.12	57.3526
3090.51	24.5759
3089.9	45.049
3089.28	49.1369
3088.67	36.8471
3088.06	40.9349
3087.45	32.743
3086.84	32.738
3086.23	36.8246
3085.62	36.819
3085.01	36.8134
3084.4	12.2693
3083.79	36.8022
3083.17	20.4425
3082.56	24.5273
3081.95	32.6981
3081.34	24.5198
3080.73	57.2042
3080.12	73.537
3079.5	40.8477
3078.89	36.7573
3078.28	61.2528
3077.67	12.2487
3077.05	40.8228
3076.44	32.6532
3075.83	24.4862
3075.22	28.5629
3074.6	69.3564
3073.99	44.8708
3073.38	48.9425
3072.77	65.2467
3072.15	57.0822
3071.54	36.6901
3070.93	0
3070.31	16.3017
3069.7	24.4489
3069.08	20.3709
3068.47	44.8092
3067.86	52.9483
3067.24	36.6509
3066.63	32.5736
3066.02	20.3554
3065.4	44.7751
3064.79	28.4889
3064.17	28.4845
3063.56	36.6174
3062.94	73.2236
3062.33	44.7409
3061.71	36.6006
3061.1	16.2644
3060.48	28.4584
3059.87	32.519
3059.25	60.9637
3058.64	48.7635
3058.02	20.315
3057.41	20.3119
3056.79	20.3088
3056.18	48.7338
3055.56	52.7868
3054.95	48.7189
3054.33	44.6521
3053.71	40.5867
3053.1	44.6385
3052.48	40.5743
3051.87	32.4544
3051.25	20.2809
3050.63	20.2778
3050.02	12.1648
3049.4	40.5433
3048.78	16.2148
3048.17	36.4778
3047.55	12.1574
3046.93	4.05185
3046.31	28.3586
3045.7	28.3543
3045.08	48.5999
3044.46	48.5925
3043.85	52.6338
3043.23	44.5295
3042.61	60.7127
3041.99	64.7503
3041.37	24.2777
3040.76	44.5022
3040.14	28.3153
3039.52	76.844
3038.9	80.876
3038.28	24.2591
3037.67	32.3405
3037.05	36.3775
3036.43	48.4959
3035.81	36.3664
3035.19	52.5212
3034.57	36.3553
3033.95	36.3497
3033.33	60.5736
3032.71	16.1505
3032.1	24.222
3031.48	8.07277
3030.86	52.4649
3030.24	16.1406
3029.62	32.2762
3029	24.2035
3028.38	20.1665
3027.76	36.2941
3027.14	24.1924
3026.52	44.3459
3025.9	28.2158
3025.28	44.3323
3024.66	60.4439
3024.04	32.2318
3023.42	40.2836
3022.8	28.1942
3022.17	56.3797
3021.55	68.4506
3020.93	64.4142
3020.31	4.02527
3019.69	48.2959
3019.07	60.3606
3018.45	24.1405
3017.83	64.3649
3017.2	32.1775
3016.58	44.2373
3015.96	60.3144
3015.34	80.4068
3014.72	32.1578
3014.1	56.2675
3013.47	44.2034
3012.85	52.2324
3012.23	20.0863
3011.61	44.1831
3010.98	20.0802
3010.36	32.1233
3009.74	36.1332
3009.12	48.1702
3008.49	24.0814
3007.87	12.0389
3007.25	28.0864
3006.62	28.0821
3006	8.02221
3005.38	48.1259
3004.75	44.1086
3004.13	36.0834
3003.51	64.1384
3002.88	48.0964
3002.26	76.1409
3001.63	44.0748
3001.01	60.0928
3000.39	40.0557
2999.76	36.0446
2999.14	56.0608
2998.51	40.0373
2997.89	36.028
2997.26	16.01
2996.64	40.0189
2996.02	68.0216
2995.39	80.0132
2994.77	48.0005
2994.14	31.9954
2993.51	63.9811
2992.89	27.9874
2992.26	55.9662
2991.64	19.9849
2991.01	31.9709
2990.39	51.9447
2989.76	43.9465
2989.14	35.9507
2988.51	47.9269
2987.88	39.9329
2987.26	43.9195
2986.63	31.9365
2986.01	-3.99145
2985.38	39.9084
2984.75	55.8632
2984.13	51.865
2983.5	51.857
2982.87	35.8955
2982.25	39.8778
2981.62	43.8588
2980.99	31.8924
2980.36	83.7047
2979.74	51.8092
2979.11	71.7248
2978.48	63.7456
2977.85	55.7688
2977.23	67.7089
2976.6	63.7162
2975.97	67.6881
2975.34	71.6587
2974.71	55.726
2974.09	71.6367
2973.46	51.7297
2972.83	71.6147
2972.2	75.5816
2971.57	83.5248
2970.94	67.6049
2970.32	63.6183
2969.69	55.6575
2969.06	59.6238
2968.43	63.589
2967.8	131.132
2967.17	55.6232
2966.54	55.6147
2965.91	79.4373
2965.28	67.5114
2964.65	71.4716
2964.02	67.4906
2963.39	67.4802
2962.76	43.6569
2962.13	71.4276
2961.5	67.449
2960.87	31.7358
2960.24	75.361
2959.61	75.3494
2958.98	71.3727
2958.35	63.4326
2957.72	71.3507
2957.09	67.3764
2956.46	35.6644
2955.83	71.3178
2955.2	59.4223
2954.57	71.2958
2953.93	51.4835
2953.3	87.1125
2952.67	71.2629
2952.04	114.795
2951.41	63.3253
2950.78	39.5722
2950.14	110.785
2949.51	59.34
2948.88	90.974
2948.25	83.0504
2947.62	102.808
2946.98	94.8855
2946.35	114.636
2945.72	98.8086
2945.09	86.9382
2944.45	75.0714
2943.82	146.169
2943.19	114.547
2942.55	51.3409
2941.92	110.563
2941.29	138.183
2940.65	102.634
2940.02	78.9373
2939.39	126.28
2938.75	130.206
2938.12	98.626
2937.49	118.333
2936.85	138.034
2936.22	118.296
2935.58	130.106
2934.95	106.434
2934.32	141.89
2933.68	118.224
2933.05	110.325
2932.41	118.187
2931.78	114.23
2931.14	118.151
2930.51	122.07
2929.87	141.737
2929.24	125.969
2928.6	137.757
2927.97	133.801
2927.33	125.911
2926.7	110.155
2926.06	125.872
2925.43	121.92
2924.79	98.307
2924.15	125.814
2923.52	129.725
2922.88	98.2615
2922.25	117.896
2921.61	113.948
2920.97	125.716
2920.34	90.3448
2919.7	109.968
2919.06	137.439
2918.43	125.639
2917.79	129.545
2917.15	133.45
2916.52	137.354
2915.88	109.866
2915.24	117.695
2914.6	145.135
2913.97	145.113
2913.33	133.326
2912.69	98.019
2912.05	109.764
2911.42	148.943
2910.78	113.649
2910.14	97.9584
2909.5	144.956
2908.86	90.0939
2908.23	105.746
2907.59	105.73
2906.95	117.459
2906.31	105.697
2905.67	136.994
2905.03	121.318
2904.39	168.254
2903.75	140.842
2903.12	129.085
2902.48	179.909
2901.84	86.0304
2901.2	129.026
2900.56	121.187
2899.92	175.89
2899.28	152.414
2898.64	148.483
2898	128.926
2897.36	121.093
2896.72	132.792
2896.08	140.581
2895.44	163.986
2894.8	97.5956
2894.16	167.838
2893.52	175.618
2892.88	159.982
2892.24	140.451
2891.59	136.528
2890.95	163.808
2890.31	155.984
2889.67	163.758
2889.03	124.748
2888.39	202.685
2887.75	128.607
2887.11	155.863
2886.46	183.111
2885.82	171.396
2885.18	194.738
2884.54	163.555
2883.9	214.146
2883.25	210.22
2882.61	194.618
2881.97	182.913
2881.33	206.231
2880.68	167.294
2880.04	221.727
2879.4	178.91
2878.76	155.55
2878.11	151.637
2877.47	171.052
2876.83	206.008
2876.18	143.794
2875.54	147.658
2874.9	151.52
2874.25	147.612
2873.61	128.17
2872.97	155.333
2872.32	174.722
2871.68	131.992
2871.03	143.616
2870.39	205.689
2869.75	143.572
2869.1	116.391
2868.46	131.89
2867.81	174.533
2867.17	100.826
2866.52	147.338
2865.88	151.192
2865.23	147.292
2864.59	228.655
2863.94	185.995
2863.3	139.475
2862.65	182.064
2862.01	154.924
2861.36	174.262
2860.71	139.388
2860.07	131.624
2859.42	139.345
2858.78	166.414
2858.13	197.344
2857.48	181.838
2856.84	239.834
2856.19	162.443
2855.55	166.285
2854.9	177.859
2854.25	189.429
2853.61	181.669
2852.96	216.423
2852.31	177.748
2851.66	177.721
2851.02	204.733
2850.37	204.702
2849.72	181.5
2849.08	173.749
2848.43	208.467
2847.78	181.415
2847.13	154.372
2846.48	173.641
2845.84	165.898
2845.19	162.015
2844.54	169.704
2843.89	138.827
2843.24	165.795
2842.59	127.218
2841.95	119.49
2841.3	138.741
2840.65	84.7728
2840	123.287
2839.35	80.8943
2838.7	80.8818
2838.05	69.3164
2837.4	77.0063
2836.75	61.5955
2836.1	57.7368
2835.45	61.5763
2834.81	80.8064
2834.16	57.7099
2833.51	73.0878
2832.86	69.2303
2832.21	69.2195
2831.56	65.3638
2830.9	49.9763
2830.25	61.4998
2829.6	69.1765
2828.95	69.1657
2828.3	65.313
2827.65	57.6202
2827	76.815
2826.35	34.5614
2825.7	49.9142
2825.05	61.4233
2824.4	42.2219
2823.74	57.5664
2823.09	88.2548
2822.44	42.2022
2821.79	61.3755
2821.14	30.683
2820.49	30.6782
2819.83	46.0102
2819.18	42.1694
2818.53	53.6618
2817.88	26.8267
2817.23	34.4861
2816.57	26.8184
2815.92	26.8142
2815.27	42.13
2814.61	57.4411
2813.96	68.9186
2813.31	42.1104
2812.66	49.7591
2812	53.5783
2811.35	57.3964
2810.7	61.2133
2810.04	38.2524
2809.39	34.4218
2808.73	49.7126
2808.08	49.7048
2807.43	30.5828
2806.77	11.4668
2806.12	53.5033
2805.46	53.4949
2804.81	49.6661
2804.15	45.8385
2803.5	87.8434
2802.85	42.0055
2802.19	57.2714
2801.54	30.54
2800.88	53.4366
2800.23	53.4283
2799.57	30.5257
2798.92	22.8907
2798.26	61.0323
2797.6	49.581
2796.95	76.2666
2796.29	61.0038
2795.64	72.4307
2794.98	34.3039
2794.33	45.7314
2793.67	26.6725
2793.01	34.2879
2792.36	34.2825
2791.7	41.8943
2791.04	41.8878
2790.39	30.4591
2789.73	76.1359
2789.07	26.6434
2788.42	49.4729
2787.76	49.4652
2787.1	15.2177
2786.45	68.4689
2785.79	57.0485
2785.13	45.6317
2784.47	38.0205
2783.82	19.0073
2783.16	49.4112
2782.5	45.6032
2781.84	37.9967
2781.18	41.7899
2780.53	15.1939
2779.87	49.3726
2779.21	56.9595
2778.55	26.577
2777.89	41.7573
2777.23	60.7283
2776.57	26.5645
2775.92	11.383
2775.26	45.5249
2774.6	68.2767
2773.94	22.7554
2773.28	15.1679
2772.62	68.2447
2771.96	60.6525
2771.3	18.9509
2770.64	30.3168
2769.98	56.8351
2769.32	37.8841
2768.66	64.393
2768	56.8084
2767.34	34.0797
2766.68	75.7209
2766.02	34.0691
2765.36	64.3427
2764.7	60.5483
2764.04	52.9715
2763.38	60.5294
2762.72	68.0849
2762.06	56.7286
2761.39	49.1571
2760.73	60.4916
2760.07	56.702
2759.41	34.0159
2758.75	64.2421
2758.09	75.5672
2757.43	49.111
2756.76	60.4348
2756.1	18.8829
2755.44	67.9679
2754.78	22.6524
2754.12	60.397
2753.45	52.8391
2752.79	52.8309
2752.13	52.8226
2751.46	41.497
2750.8	60.3498
2750.14	52.7978
2749.48	75.4136
2748.81	56.5514
2748.15	41.4645
2747.49	26.3824
2746.82	67.8298
2746.16	64.0514
2745.5	64.0414
2744.83	71.5645
2744.17	22.5958
2743.5	60.246
2742.84	71.5309
2742.18	41.4061
2741.51	15.0544
2740.85	22.5781
2740.18	56.4364
2739.52	67.713
2738.85	37.6125
2738.19	86.4951
2737.52	56.401
2736.86	30.0758
2736.19	30.0711
2735.53	48.8579
2734.86	52.608
2734.2	67.6282
2733.53	75.1307
2732.87	60.0951
2732.2	67.5964
2731.54	60.0763
2730.87	45.0502
2730.2	60.0575
2729.54	78.8131
2728.87	41.2766
2728.2	71.2847
2727.54	78.776
2726.87	67.5117
2726.21	93.7516
2725.54	71.24
2724.87	89.9733
2724.2	74.966
2723.54	101.188
2722.87	67.4482
2722.2	59.9446
2721.54	108.633
2720.87	41.199
2720.2	63.6612
2719.53	59.907
2718.87	44.9232
2718.2	104.804
2717.53	44.9091
2716.86	71.0949
2716.19	82.3075
2715.52	89.7759
2714.86	59.8412
2714.19	56.0923
2713.52	59.8224
2712.85	52.3364
2712.18	78.4923
2711.51	41.1086
2710.84	63.5214
2710.17	33.6237
2709.5	44.8246
2708.84	63.4915
2708.17	52.2789
2707.5	52.2707
2706.83	48.5295
2706.16	48.5219
2705.49	59.7098
2704.82	52.2379
2704.15	48.499
2703.48	70.872
2702.81	33.5657
2702.14	48.4761
2701.47	67.1103
2700.79	41.0054
2700.12	70.8164
2699.45	40.9925
2698.78	40.9861
2698.11	18.6271
2697.44	52.1477
2696.77	59.588
2696.1	63.3023
2695.43	70.7385
2694.75	74.4499
2694.08	70.7163
2693.41	48.3772
2692.74	59.5318
2692.07	85.5635
2691.39	63.2327
2690.72	40.9088
2690.05	70.6496
2689.38	44.6138
2688.71	52.0412
2688.03	66.8996
2687.36	37.1606
2686.69	29.7238
2686.01	66.8681
2685.34	52.0003
2684.67	70.5608
2683.99	63.1234
2683.32	51.9758
2682.65	63.1035
2681.97	48.248
2681.3	66.7945
2680.63	40.8124
2679.95	44.5156
2679.28	51.9267
2678.6	40.7932
2677.93	63.034
2677.26	40.7803
2676.58	74.1344
2675.91	63.0043
2675.23	48.1722
2674.56	37.0497
2673.88	51.8614
2673.21	77.7798
2672.53	59.2515
2671.86	51.8369
2671.18	40.7226
2670.51	62.925
2669.83	48.1115
2669.16	29.6024
2668.48	33.2975
2667.8	40.6905
2667.13	33.287
2666.45	70.2615
2665.78	40.6713
2665.1	29.5745
2664.42	33.266
2663.75	36.9564
2663.07	55.4259
2662.39	62.8061
2661.72	70.184
2661.04	51.7064
2660.36	33.2346
2659.69	66.4587
2659.01	36.9157
2658.33	66.4377
2657.65	51.6656
2656.98	36.8982
2656.3	47.9601
2655.62	59.0185
2654.94	36.8808
2654.26	40.5624
2653.59	77.4252
2652.91	58.9813
2652.23	88.458
2651.55	51.5924
2650.87	77.3764
2650.19	73.6801
2649.52	58.9348
2648.84	47.877
2648.16	33.1404
2647.48	36.8168
2646.8	44.1732
2646.12	51.5273
2645.44	51.5192
2644.76	62.5491
2644.08	40.4666
2643.4	40.4602
2642.72	44.1314
2642.04	55.1556
2641.36	77.2056
2640.68	69.8417
2640	69.8306
2639.32	55.1207
2638.64	58.7862
2637.96	33.062
2637.28	73.4595
2636.6	44.0688
2635.92	51.4054
2635.24	66.0823
2634.56	44.0479
2633.88	58.7212
2633.19	58.712
2632.51	58.7027
2631.83	33.015
2631.15	77.0229
2630.47	58.6749
2629.79	47.6658
2629.1	58.6563
2628.42	40.3199
2627.74	43.9783
2627.06	95.2714
2626.38	36.637
2625.69	51.2838
2625.01	43.9506
2624.33	36.6197
2623.65	65.905
2622.96	58.573
2622.28	69.5444
2621.6	43.9158
2620.91	73.1815
2620.23	69.5114
2619.55	87.79
2618.86	65.8321
2618.18	36.5676
2617.5	62.1551
2616.81	58.4897
2616.13	80.4106
2615.44	62.1256
2614.76	73.0774
2614.07	40.1862
2613.39	47.4853
2612.71	29.2171
2612.02	29.2125
2611.34	51.1137
2610.65	51.1056
2609.97	54.7474
2609.28	25.5447
2608.6	47.4327
2607.91	72.9618
2607.23	58.3602
2606.54	58.351
2605.85	83.8663
2605.17	54.6867
2604.48	58.3233
2603.8	54.6694
2603.11	69.237
2602.42	58.2956
2601.74	36.429
2601.05	47.3502
2600.37	65.5514
2599.68	61.8999
2598.99	40.0465
2598.31	58.2402
2597.62	43.6733
2596.93	58.2218
2596.24	58.2126
2595.56	69.1165
2594.87	69.1055
2594.18	61.8215
2593.49	14.5439
2592.81	58.1665
2592.12	69.0617
2591.43	25.4398
2590.74	58.1388
2590.06	50.8634
2589.37	21.7951
2588.68	47.2153
2587.99	43.5765
2587.3	29.0464
2586.61	47.1929
2585.92	43.5558
2585.24	47.1779
2584.55	72.5699
2583.86	61.6746
2583.17	61.6649
2582.48	54.4015
2581.79	32.6357
2581.1	32.6306
2580.41	68.8758
2579.72	54.367
2579.03	61.6062
2578.34	54.3498
2577.65	76.0776
2576.96	32.5995
2576.27	47.0807
2575.58	32.5892
2574.89	43.4453
2574.2	79.6372
2573.51	54.2895
2572.82	61.5183
2572.13	75.9811
2571.43	47.0285
2570.74	65.106
2570.05	43.3971
2569.36	50.6219
2568.67	14.4611
2567.98	25.3029
2567.29	36.1413
2566.59	43.3627
2565.9	50.5817
2565.21	61.4109
2564.52	39.7302
2563.83	83.059
2563.13	68.6031
2562.44	75.8124
2561.75	50.5336
2561.06	46.9166
2560.36	25.2588
2559.67	36.0782
2558.98	64.9305
2558.28	50.4934
2557.59	72.122
2556.9	46.8719
2556.2	18.0248
2555.51	39.6482
2554.82	36.0381
2554.12	72.0647
2553.43	79.2586
2552.73	54.0314
2552.04	36.0152
2551.35	54.0142
2550.65	43.2045
2549.96	32.3982
2549.26	50.3892
2548.57	64.7758
2547.87	57.5694
2547.18	57.5602
2546.48	75.5357
2545.79	46.7528
2545.09	43.1496
2544.4	50.3331
2543.7	28.7572
2543.01	53.9112
2542.31	75.4637
2541.61	43.1152
2540.92	61.0702
2540.22	64.6523
2539.53	68.2332
2538.83	64.6317
2538.13	61.0313
2537.44	61.0216
2536.74	71.7787
2536.04	53.8255
2535.35	46.6413
2534.65	50.2211
2533.95	64.5597
2533.26	50.2051
2532.56	53.7827
2531.86	68.1138
2531.16	50.1812
2530.47	71.676
2529.77	39.4155
2529.07	32.2439
2528.37	32.2388
2527.68	64.4673
2526.98	35.8094
2526.28	57.286
2525.58	42.9577
2524.88	39.3716
2524.18	32.208
2523.48	39.359
2522.79	53.6629
2522.09	53.6543
2521.39	64.3749
2520.69	71.5163
2519.99	46.4782
2519.29	28.5974
2518.59	39.3151
2517.89	64.3236
2517.19	75.0323
2516.49	64.3031
2515.79	75.0083
2515.09	42.8551
2514.39	64.2724
2513.69	96.3932
2512.99	32.1259
2512.29	39.2588
2511.59	53.5261
2510.89	78.4925
2510.19	57.0763
2509.49	46.3671
2508.79	32.0952
2508.09	39.2212
2507.38	74.8649
2506.68	53.4664
2505.98	67.7133
2505.28	60.5759
2504.58	57.0035
2503.88	53.4323
2503.17	64.1085
2502.47	64.0983
2501.77	49.8463
2501.07	53.3982
2500.36	49.8304
2499.66	53.3812
2498.96	81.838
2498.26	35.5761
2497.55	42.6845
2496.85	67.573
2496.15	56.8945
2495.45	67.5514
2494.74	49.7668
2494.04	46.2046
2493.33	78.1799
2492.63	28.4245
2491.93	53.2875
2491.22	46.1751
2490.52	67.4759
2489.82	71.0159
2489.11	46.153
2488.41	28.3973
2487.7	70.9819
2487	56.7764
2486.29	42.5755
2485.59	92.2322
2484.88	81.577
2484.18	28.3701
2483.47	49.6397
2482.77	49.6318
2482.06	53.1684
2481.36	92.1438
2480.65	46.0645
2479.95	67.3143
2479.24	28.3383
2478.54	53.1259
2477.83	56.6586
2477.12	67.2713
2476.42	53.1004
2475.71	70.7892
2475	28.3112
2474.3	56.6133
2473.59	45.9909
2472.88	56.5952
2472.18	56.5861
2471.47	63.6492
2470.76	49.497
2470.06	17.6747
2469.35	56.5499
2468.64	67.1423
2467.93	70.6648
2467.23	67.1208
2466.52	98.899
2465.81	49.4416
2465.1	42.3717
2464.39	81.1995
2463.69	67.0671
2462.98	74.1149
2462.27	67.0456
2461.56	81.1475
2460.85	70.5517
2460.14	49.3783
2459.43	67.0027
2458.73	52.8884
2458.02	66.9812
2457.31	56.3962
2456.6	49.3388
2455.89	35.2363
2455.18	66.9383
2454.47	88.0626
2453.76	42.2633
2453.05	73.9489
2452.34	45.7706
2451.63	66.8847
2450.92	45.7559
2450.21	70.3824
2449.5	77.4082
2448.79	52.7699
2448.08	77.3834
2447.36	49.2361
2446.65	45.7119
2445.94	91.4092
2445.23	56.2428
2444.52	101.924
2443.81	80.8231
2443.1	56.2157
2442.39	59.7196
2441.67	63.2224
2440.96	87.7948
2440.25	66.7134
2439.54	77.2347
2438.83	80.7324
2438.11	31.5859
2437.4	66.6706
2436.69	49.1178
2435.98	63.1413
2435.26	63.1312
2434.55	63.1211
2433.84	28.0493
2433.12	84.1344
2432.41	56.0806
2431.7	52.5671
2430.98	70.0783
2430.27	70.067
2429.56	66.553
2428.84	84.0534
2428.13	59.5283
2427.41	73.5231
2426.7	94.5146
2425.99	59.4996
2425.27	59.4901
2424.56	62.9794
2423.84	41.9795
2423.13	52.466
2422.41	87.4292
2421.7	55.9457
2420.98	69.9209
2420.27	87.3871
2419.55	66.4035
2418.84	48.9211
2418.12	52.407
2417.41	55.8918
2416.69	48.8975
2415.97	104.763
2415.26	45.3902
2414.54	66.3289
2413.83	59.3373
2413.11	90.7367
2412.39	69.7862
2411.68	45.3537
2410.96	59.2992
2410.24	55.802
2409.53	55.7931
2408.81	55.7841
2408.09	73.2049
2407.37	41.8246
2406.66	76.6662
2405.94	24.3899
2405.22	73.1578
2404.5	80.1123
2403.79	55.7213
2403.07	73.1225
2402.35	83.5551
2401.63	48.7326
2400.91	69.6069
2400.19	55.6765
2399.48	100.897
2398.76	52.18
2398.04	86.9526
2397.32	69.5509
2396.6	66.0627
2395.88	62.5757
2395.16	45.1863
2394.44	62.5555
2393.72	69.4949
2393	59.0612
2392.28	76.4198
2391.56	97.2459
2390.84	52.0876
2390.12	45.1354
2389.4	62.485
2388.68	65.9458
2387.96	41.6433
2387.24	62.4549
2386.52	65.914
2385.8	83.2463
2385.08	79.7649
2384.36	52.0122
2383.64	55.4707
2382.92	79.7263
2382.2	55.4529
2381.48	76.2354
2380.75	48.5056
2380.03	51.9619
2379.31	72.735
2378.59	62.3342
2377.87	48.4744
2377.14	79.6236
2376.42	96.9175
2375.7	76.1372
2374.98	44.9829
2374.25	55.3546
2373.53	48.4275
2372.81	58.7953
2372.09	76.0758
2371.36	72.6061
2370.64	76.0513
2369.92	69.1264
2369.19	65.6595
2368.47	93.2905
2367.75	76.0022
2367.02	48.3573
2366.3	55.2565
2365.57	51.7946
2364.85	58.6911
2364.13	69.0372
2363.4	55.2209
2362.68	69.0149
2361.95	65.5536
2361.23	68.9927
2360.5	62.0834
2359.78	65.5219
2359.05	68.9593
2358.33	48.2637
2357.6	86.1713
2356.88	55.1407
2356.15	68.9148
2355.43	55.1229
2354.7	82.671
2353.97	75.7695
2353.25	41.3222
2352.52	65.4162
2351.8	65.4056
2351.07	79.1624
2350.34	79.1496
2349.62	86.0183
2348.89	37.8419
2348.16	55.0339
2347.44	106.611
2346.71	68.7702
2345.98	89.3868
2345.25	58.4358
2344.53	96.2316
2343.8	85.9072
2343.07	68.7147
2342.34	37.787
2341.62	65.2578
2340.89	85.8517
2340.16	72.1038
2339.43	54.9273
2338.7	92.6749
2337.97	75.5006
2337.25	65.1946
2336.52	78.907
2335.79	89.1847
2335.06	54.874
2334.33	72.0105
2333.6	85.713
2332.87	68.5593
2332.14	95.9675
2331.41	71.964
2330.68	75.3786
2329.95	95.9209
2329.22	78.7794
2328.49	65.0681
2327.76	65.0576
2327.03	89.0118
2326.3	75.3055
2325.57	78.7157
2324.84	75.2811
2324.11	51.3197
2323.38	64.9944
2322.65	68.4041
2321.92	82.0717
2321.19	102.573
2320.46	54.6967
2319.72	54.6879
2318.99	75.1837
2318.26	92.2559
2317.53	75.1593
2316.8	78.5629
2316.07	78.5502
2315.33	44.3907
2314.6	78.5247
2313.87	71.6849
2313.14	85.3253
2312.4	78.4866
2311.67	54.5905
2310.94	68.2271
2310.2	105.735
2309.47	68.205
2308.74	81.8327
2308.01	57.9555
2307.27	105.666
2306.54	47.7125
2305.8	74.9647
2305.07	81.7664
2304.34	71.534
2303.6	57.8991
2302.87	64.7003
2302.13	74.904
2301.4	64.6793
2300.67	85.0905
2299.93	71.4645
2299.2	47.6352
2298.46	95.255
2297.73	68.0283
2296.99	85.0216
2296.26	51.0047
2295.52	54.3961
2294.79	61.1857
2294.05	67.9731
2293.31	71.3602
2292.58	44.1682
2291.84	78.1311
2291.11	67.929
2290.37	54.3344
2289.63	91.6744
2288.9	74.6855
2288.16	61.0964
2287.42	95.0235
2286.69	101.794
2285.95	74.6371
2285.21	78.017
2284.48	81.3958
2283.74	47.4732
2283	71.1982
2282.26	40.6781
2281.53	67.7858
2280.79	81.3297
2280.05	57.5992
2279.31	64.3651
2278.57	54.1934
2277.84	81.2769
2277.1	91.4217
2276.36	71.0942
2275.62	81.2373
2274.88	43.9964
2274.14	74.4433
2273.4	74.4312
2272.67	60.8884
2271.93	67.6428
2271.19	87.9213
2270.45	84.526
2269.71	67.6098
2268.97	57.459
2268.23	67.5878
2267.49	87.8499
2266.75	57.431
2266.01	77.6881
2265.27	81.0526
2264.53	87.7927
2263.79	54.0175
2263.05	77.6376
2262.31	104.625
2261.57	94.4845
2260.82	60.7302
2260.08	84.3338
2259.34	70.8288
2258.6	67.4451
2257.86	74.1775
2257.12	67.4231
2256.38	74.1533
2255.63	87.6215
2254.89	67.3902
2254.15	67.3792
2253.41	87.5787
2252.67	67.3573
2251.92	23.5712
2251.18	53.8683
2250.44	74.0568
2249.7	77.4105
2248.95	77.3979
2248.21	77.3853
2247.47	67.2806
2246.72	87.4505
2245.98	63.8957
2245.24	84.0596
2244.49	43.7039
2243.75	70.5871
2243	77.2971
2242.26	97.4457
2241.52	73.9122
2240.77	63.8229
2240.03	87.3224
2239.28	63.8021
2238.54	87.2939
2237.79	90.6366
2237.05	87.2655
2236.3	114.098
2235.56	83.8818
2234.81	63.7397
2234.07	80.5002
2233.32	100.609
2232.58	73.7678
2231.83	77.1083
2231.09	93.8557
2230.34	63.6774
2229.59	63.667
2228.85	70.3574
2228.1	80.3953
2227.35	70.3344
2226.61	90.4152
2225.86	90.4005
2225.11	87.0381
2224.37	76.9827
2223.62	73.6236
2222.87	70.2656
2222.13	83.6359
2221.38	83.6222
2220.63	70.2312
2219.88	70.2197
2219.14	63.5218
2218.39	96.9385
2217.64	70.1854
2216.89	73.5155
2216.14	66.8214
2215.4	90.1941
2214.65	70.1396
2213.9	90.1647
2213.15	86.8111
2212.4	76.7819
2211.65	86.7827
2210.9	66.7451
2210.15	60.0607
2209.4	100.085
2208.65	80.0548
2207.9	70.0365
2207.16	100.036
2206.41	76.6816
2205.66	100.003
2204.91	96.6539
2204.15	93.3058
2203.4	109.95
2202.65	76.619
2201.9	73.2758
2201.15	63.2733
2200.4	79.9111
2199.65	73.2398
2198.9	89.8706
2198.15	73.2159
2197.4	106.478
2196.65	103.134
2195.89	63.2009
2195.14	76.4938
2194.39	73.1561
2193.64	96.4172
2192.89	76.4563
2192.13	86.4147
2191.38	86.4006
2190.63	76.4188
2189.88	102.982
2189.12	86.3582
2188.37	76.3813
2187.62	122.854
2186.87	106.235
2186.11	79.6631
2185.36	116.156
2184.61	86.2735
2183.85	76.3064
2183.1	122.734
2182.35	106.131
2181.59	89.533
2180.84	89.5184
2180.08	89.5037
2179.33	72.917
2178.57	86.1606
2177.82	76.2065
2177.07	96.0707
2176.31	89.4305
2175.56	102.663
2174.8	79.4677
2174.05	69.5229
2173.29	92.682
2172.53	89.3573
2171.78	99.2696
2171.02	82.7111
2170.27	76.0818
2169.51	76.0693
2168.76	69.4432
2168	109.107
2167.24	99.1721
2166.49	72.7143
2165.73	99.1396
2164.97	75.9945
2164.22	105.714
2163.46	75.9696
2162.7	75.9572
2161.95	75.9447
2161.19	105.645
2160.43	56.1146
2159.67	79.2077
2158.92	59.396
2158.16	105.576
2157.4	69.2726
2156.64	89.0502
2155.88	89.0356
2155.13	69.2386
2154.37	112.082
2153.61	82.3998
2152.85	115.341
2152.09	98.8473
2151.33	92.2424
2150.57	92.2272
2149.82	108.679
2149.06	121.832
2148.3	75.7208
2147.54	102.042
2146.78	98.7338
2146.02	108.589
2145.26	88.8313
2144.5	88.8167
2143.74	62.4904
2142.98	115.095
2142.22	108.5
2141.46	121.632
2140.7	78.8834
2139.94	88.7292
2139.17	111.715
2138.41	111.696
2137.65	78.8316
2136.89	88.671
2136.13	91.94
2135.37	78.7927
2134.61	91.9098
2133.84	91.8947
2133.08	98.4424
2132.32	75.4601
2131.56	91.8494
2130.8	104.953
2130.03	111.495
2129.27	111.476
2128.51	98.3454
2127.75	114.717
2126.98	58.9878
2126.22	81.9141
2125.46	75.3485
2124.69	85.1626
2123.93	88.4236
2123.17	65.4882
2122.4	108.038
2121.64	101.473
2120.88	75.2742
2120.11	114.529
2119.35	91.6081
2118.58	65.4236
2117.82	85.0366
2117.05	117.724
2116.29	91.5478
2115.53	107.878
2114.76	107.86
2114	98.0385
2113.23	94.755
2112.47	75.1381
2111.7	91.4574
2110.93	137.164
2110.17	101.223
2109.4	97.9417
2108.64	97.9256
2107.87	117.491
2107.1	104.42
2106.34	107.665
2105.57	91.337
2104.81	68.4915
2104.04	107.612
2103.27	94.5524
2102.51	101.057
2101.74	107.559
2100.97	107.541
2100.2	65.1656
2099.44	87.959
2098.67	136.803
2097.9	100.957
2097.13	65.1226
2096.37	120.457
2095.6	97.6518
2094.83	110.654
2094.06	100.874
2093.29	110.617
2092.52	130.117
2091.76	87.8142
2090.99	117.066
2090.22	100.79
2089.45	113.777
2088.68	117.008
2087.91	74.743
2087.14	64.9832
2086.37	81.2156
2085.6	116.931
2084.83	107.169
2084.06	113.646
2083.29	94.148
2082.52	100.624
2081.75	94.1169
2080.98	123.305
2080.21	77.8642
2079.44	84.3389
2078.67	110.271
2077.9	113.496
2077.13	100.508
2076.36	97.2499
2075.58	110.198
2074.81	113.421
2074.04	103.682
2073.27	110.144
2072.5	97.1697
2071.73	90.6767
2070.95	110.089
2070.18	106.834
2069.41	106.816
2068.64	77.6716
2067.86	113.252
2067.09	103.528
2066.32	90.572
2065.55	135.836
2064.77	100.243
2064	129.324
2063.23	77.5818
2062.45	61.4088
2061.68	116.334
2060.9	103.391
2060.13	113.065
2059.36	122.736
2058.58	119.487
2057.81	109.781
2057.03	116.219
2056.26	116.2
2055.48	83.9082
2054.71	77.4409
2053.93	80.6543
2053.16	116.123
2052.38	99.9782
2051.61	99.9617
2050.83	93.4971
2050.06	125.717
2049.28	106.358
2048.51	99.8956
2047.73	96.6571
2046.95	132.076
2046.18	109.509
2045.4	122.372
2044.63	96.5932
2043.85	138.427
2043.07	86.9051
2042.3	102.982
2041.52	135.141
2040.74	112.599
2039.96	102.93
2039.19	80.4011
2038.41	80.3878
2037.63	109.309
2036.85	138.221
2036.08	128.557
2035.3	112.468
2034.52	112.45
2033.74	115.644
2032.96	122.048
2032.19	102.76
2031.41	122.008
2030.63	128.408
2029.85	134.806
2029.07	105.901
2028.29	121.927
2027.51	115.49
2026.73	118.679
2025.95	115.452
2025.17	102.607
2024.39	118.62
2023.61	153.86
2022.83	144.219
2022.05	144.196
2021.27	128.153
2020.49	108.912
2019.71	121.705
2018.93	144.1
2018.15	99.2524
2017.37	102.437
2016.59	140.828
2015.81	134.404
2015.03	124.783
2014.24	137.559
2013.46	105.551
2012.68	131.117
2011.9	134.293
2011.12	124.68
2010.33	131.052
2009.55	108.659
2008.77	92.6644
2007.99	124.597
2007.2	124.576
2006.42	137.331
2005.64	89.4097
2004.86	143.67
2004.07	146.839
2003.29	153.197
2002.51	108.497
2001.72	114.86
2000.94	124.411
2000.15	105.253
1999.37	140.314
1998.59	149.856
1997.8	165.771
1997.02	101.996
1996.23	159.342
1995.45	111.521
1994.66	140.175
1993.88	165.634
1993.09	124.204
1992.31	146.473
1991.52	120.98
1990.74	130.509
1989.95	178.226
1989.17	130.466
1988.38	139.989
1987.6	146.327
1986.81	149.483
1986.02	127.199
1985.24	139.895
1984.45	149.409
1983.66	146.206
1982.88	155.715
1982.09	142.98
1981.3	162.017
1980.52	161.99
1979.73	165.139
1978.94	114.308
1978.15	130.162
1977.37	152.36
1976.58	149.161
1975.79	139.617
1975	152.284
1974.22	130.054
1973.43	145.89
1972.64	136.353
1971.85	133.16
1971.06	171.177
1970.27	158.47
1969.48	171.12
1968.69	136.239
1967.91	174.231
1967.12	145.696
1966.33	167.839
1965.54	174.144
1964.75	148.789
1963.96	164.59
1963.17	151.904
1962.38	180.356
1961.59	170.835
1960.8	158.154
1960.01	129.665
1959.22	148.615
1958.43	164.398
1957.63	148.566
1956.84	148.541
1956.05	139.037
1955.26	170.607
1954.47	157.944
1953.68	170.551
1952.89	176.838
1952.09	151.55
1951.3	183.092
1950.51	183.062
1949.72	160.941
1948.93	157.759
1948.13	176.661
1947.34	145.09
1946.55	189.217
1945.76	179.726
1944.96	167.086
1944.17	167.058
1943.38	167.03
1942.58	179.606
1941.79	176.425
1941	170.096
1940.2	163.769
1939.41	198.379
1938.61	173.159
1937.82	176.278
1937.02	138.481
1936.23	157.339
1935.44	151.02
1934.64	173.015
1933.85	188.712
1933.05	157.234
1932.26	157.208
1931.46	182.33
1930.67	188.586
1929.87	179.127
1929.07	163.387
1928.28	188.492
1927.48	213.588
1926.69	179.007
1925.89	160.138
1925.09	200.924
1924.3	185.195
1923.5	188.303
1922.7	194.547
1921.91	210.201
1921.11	169.388
1920.31	181.905
1919.52	172.467
1918.72	206.926
1917.92	213.161
1917.12	169.246
1916.33	188.02
1915.53	150.391
1914.73	203.62
1913.93	216.115
1913.13	206.684
1912.33	197.256
1911.54	178.44
1910.74	219.1
1909.94	184.639
1909.14	190.866
1908.34	212.733
1907.54	190.802
1906.74	184.516
1905.94	209.5
1905.14	187.58
1904.34	225.059
1903.54	196.893
1902.74	206.235
1901.94	193.703
1901.14	193.671
1900.34	215.501
1899.54	215.465
1898.74	206.062
1897.94	196.663
1897.14	171.661
1896.34	215.321
1895.54	177.844
1894.73	193.412
1893.93	202.736
1893.13	202.703
1892.33	196.433
1891.53	205.752
1890.73	193.25
1889.92	205.683
1889.12	211.881
1888.32	199.384
1887.52	199.35
1886.71	205.545
1885.91	186.828
1885.11	211.703
1884.3	214.78
1883.5	220.969
1882.7	233.379
1881.89	199.116
1881.09	195.972
1880.29	199.05
1879.48	242.551
1878.68	236.292
1877.87	233.144
1877.07	233.105
1876.27	254.819
1875.46	267.204
1874.66	220.562
1873.85	242.267
1873.05	232.91
1872.24	248.395
1871.44	226.623
1870.63	245.208
1869.82	257.581
1869.02	235.817
1868.21	238.88
1867.41	217.127
1866.6	229.496
1865.79	272.868
1864.99	254.221
1864.18	226.281
1863.38	263.433
1862.57	238.6
1861.76	219.971
1860.95	213.738
1860.15	201.314
1859.34	247.729
1858.53	241.496
1857.72	250.742
1856.92	232.129
1856.11	256.847
1855.3	253.709
1854.49	266.041
1853.68	216.509
1852.88	284.506
1852.07	231.896
1851.26	234.948
1850.45	262.727
1849.64	262.682
1848.83	268.818
1848.02	268.773
1847.21	250.195
1846.4	222.358
1845.59	231.584
1844.78	219.196
1843.97	259.287
1843.16	243.812
1842.35	283.885
1841.54	222.134
1840.73	249.859
1839.92	225.143
1839.11	246.691
1838.3	249.733
1837.49	271.269
1836.68	224.992
1835.87	234.199
1835.06	268.051
1834.25	277.247
1833.43	246.401
1832.62	234.041
1831.81	230.923
1831	261.669
1830.19	261.625
1829.37	215.419
1828.56	270.767
1827.75	270.722
1826.94	261.449
1826.12	246.028
1825.31	261.361
1824.5	279.762
1823.68	258.199
1822.87	261.229
1822.06	248.894
1821.24	251.924
1820.43	279.527
1819.61	264.124
1818.8	257.938
1817.99	217.982
1817.17	260.921
1816.36	242.462
1815.54	270.039
1814.73	257.721
1813.91	269.948
1813.1	242.299
1812.28	291.323
1811.47	285.142
1810.65	248.307
1809.84	291.176
1809.02	278.868
1808.2	291.077
1807.39	266.521
1806.57	306.294
1805.75	244.994
1804.94	269.448
1804.12	257.157
1803.3	293.844
1802.49	266.251
1801.67	266.206
1800.85	235.568
1800.04	293.646
1799.22	263.013
1798.4	278.258
1797.58	272.096
1796.77	244.54
1795.95	247.555
1795.13	265.847
1794.31	299.41
1793.49	329.906
1792.67	232.117
1791.86	302.312
1791.04	277.836
1790.22	289.999
1789.4	317.419
1788.58	265.489
1787.76	265.444
1786.94	292.854
1786.12	274.504
1785.3	259.21
1784.48	307.951
1783.66	329.238
1782.84	292.607
1782.02	313.89
1781.2	301.649
1780.38	338.155
1779.56	301.547
1778.74	274.087
1777.92	316.67
1777.1	325.749
1776.27	343.958
1775.45	295.206
1774.63	295.156
1773.81	316.402
1772.99	282.889
1772.17	328.461
1771.34	310.16
1770.52	273.625
1769.7	310.055
1768.88	313.042
1768.05	300.834
1767.23	337.242
1766.41	346.298
1765.58	324.979
1764.76	318.851
1763.94	337.014
1763.11	321.779
1762.29	339.935
1761.47	327.739
1760.64	303.411
1759.82	306.393
1758.99	342.738
1758.17	285.062
1757.35	306.238
1756.52	339.533
1755.7	312.196
1754.87	309.113
1754.05	357.541
1753.22	333.244
1752.4	327.13
1751.57	321.017
1750.74	314.907
1749.92	296.689
1749.09	296.639
1748.27	378.302
1747.44	302.59
1746.61	287.412
1745.79	326.687
1744.96	290.339
1744.13	359.839
1743.31	338.614
1742.48	362.74
1741.65	365.7
1740.83	332.399
1740	314.215
1739.17	332.286
1738.34	344.311
1737.51	347.272
1736.69	317.021
1735.86	295.836
1735.03	374.26
1734.2	383.249
1733.37	319.823
1732.54	362.003
1731.72	334.796
1730.89	355.848
1730.06	322.621
1729.23	346.684
1728.4	373.752
1727.57	304.376
1726.74	349.521
1725.91	325.361
1725.08	343.378
1724.25	352.354
1723.42	364.339
1722.59	379.33
1721.76	337.125
1720.93	343.087
1720.1	349.047
1719.27	330.936
1718.43	363.968
1717.6	336.839
1716.77	357.831
1715.94	357.77
1715.11	318.632
1714.28	369.67
1713.45	333.548
1712.61	360.531
1711.78	351.458
1710.95	351.399
1710.12	363.351
1709.28	363.289
1708.45	402.252
1707.62	357.163
1706.78	345.099
1705.95	375.043
1705.12	353.981
1704.28	383.914
1703.45	371.854
1702.62	362.795
1701.78	359.736
1700.95	383.653
1700.11	359.614
1699.28	359.553
1698.45	359.491
1697.61	383.392
1696.78	383.327
1695.94	383.262
1695.11	380.203
1694.27	368.166
1693.44	368.103
1692.6	362.056
1691.76	370.97
1690.93	394.836
1690.09	391.778
1689.26	388.721
1688.42	406.593
1687.58	364.676
1686.75	424.387
1685.91	409.374
1685.07	382.415
1684.24	379.363
1683.4	361.379
1682.56	400.137
1681.73	361.256
1680.89	417.911
1680.05	370.087
1679.21	390.912
1678.37	387.862
1677.54	396.745
1676.7	399.66
1675.86	390.646
1675.02	429.339
1674.18	411.38
1673.34	411.31
1672.51	420.18
1671.67	408.191
1670.83	443.869
1669.99	428.901
1669.15	431.806
1668.31	437.687
1667.47	395.935
1666.63	389.915
1665.79	461.271
1664.95	446.315
1664.11	455.164
1663.27	404.521
1662.43	469.878
1661.59	428.17
1660.75	451.881
1659.9	457.748
1659.06	481.445
1658.22	457.592
1657.38	427.806
1656.54	439.614
1655.7	418.75
1654.85	478.066
1654.01	442.358
1653.17	427.441
1652.33	442.207
1651.49	459.936
1650.64	427.222
1649.8	436.048
1648.96	447.837
1648.11	432.934
1647.27	438.79
1646.43	441.679
1645.58	423.821
1644.74	432.639
1643.9	432.565
1643.05	468.038
1642.21	485.729
1641.36	429.382
1640.52	485.563
1639.68	435.156
1638.83	461.719
1637.99	417.252
1637.14	458.603
1636.3	425.984
1635.45	419.996
1634.61	414.01
1633.76	393.242
1632.91	452.299
1632.07	458.133
1631.22	425.548
1630.38	469.795
1629.53	481.532
1628.68	475.542
1627.84	378.006
1626.99	442.9
1626.14	425.111
1625.3	410.28
1624.45	448.575
1623.6	498.66
1622.75	427.771
1621.91	436.547
1621.06	477.76
1620.21	406.911
1619.36	430.427
1618.52	465.724
1617.67	421.438
1616.82	415.473
1615.97	462.539
1615.12	456.569
1614.27	403.479
1613.42	397.521
1612.57	415.117
1611.72	400.328
1610.88	409.089
1610.03	429.617
1609.18	450.138
1608.33	435.353
1607.48	420.573
1606.63	485.194
1605.78	438.07
1604.93	411.539
1604.07	452.615
1603.22	434.906
1602.37	414.265
1601.52	390.694
1600.67	437.62
1599.82	463.974
1598.97	472.702
1598.12	408.04
1597.26	434.385
1596.41	419.638
1595.56	422.5
1594.71	434.162
1593.86	434.087
1593	428.148
1592.15	428.075
1591.3	486.632
1590.45	404.48
1589.59	463.021
1588.74	395.551
1587.89	451.144
1587.03	445.209
1586.18	448.061
1585.32	430.416
1584.47	436.197
1583.62	439.049
1582.76	441.9
1581.91	453.529
1581.05	488.557
1580.2	421.198
1579.34	374.334
1578.49	456.141
1577.63	461.91
1576.78	476.446
1575.92	420.837
1575.07	493.814
1574.21	484.965
1573.36	435.225
1572.5	481.878
1571.64	446.756
1570.79	467.115
1569.93	455.359
1569.07	446.526
1568.22	478.547
1567.36	428.868
1566.5	449.213
1565.65	489.966
1564.79	495.714
1563.93	448.981
1563.07	489.714
1562.22	504.202
1561.36	474.976
1560.5	463.24
1559.64	463.161
1558.78	445.606
1557.92	509.593
1557.07	462.922
1556.21	471.575
1555.35	486.046
1554.49	442.313
1553.63	497.517
1552.77	465.433
1551.91	526.431
1551.05	485.629
1550.19	494.268
1549.33	505.81
1548.47	476.659
1547.61	470.765
1546.75	453.251
1545.89	502.558
1545.03	458.904
1544.17	455.921
1543.31	426.808
1542.45	470.279
1541.58	502.126
1540.72	487.529
1539.86	490.347
1539	525.074
1538.14	507.581
1537.28	440.794
1536.41	495.808
1535.55	460.935
1534.69	475.348
1533.83	463.675
1532.96	498.364
1532.1	475.103
1531.24	506.882
1530.37	506.795
1529.51	483.544
1528.65	509.515
1527.78	544.161
1526.92	468.824
1526.05	532.4
1525.19	500.486
1524.33	488.829
1523.46	422.23
1522.6	491.552
1521.73	531.942
1520.87	502.945
1520	499.968
1519.14	525.888
1518.27	496.907
1517.41	456.382
1516.54	490.96
1515.67	499.538
1514.81	525.434
1513.94	519.571
1513.08	533.911
1512.21	490.537
1511.34	527.957
1510.48	475.945
1509.61	547.963
1508.74	470.014
1507.88	510.295
1507.01	478.499
1506.14	478.417
1505.27	492.742
1504.41	515.705
1503.54	501.213
1502.67	535.687
1501.8	526.956
1500.93	538.381
1500.06	546.924
1499.2	506.537
1498.33	523.715
1497.46	538.01
1496.59	514.904
1495.72	566.585
1494.85	569.362
1493.98	491.637
1493.11	491.552
1492.24	548.949
1491.37	505.75
1490.5	508.536
1489.63	534.302
1488.76	525.593
1487.89	525.502
1487.02	551.251
1486.15	493.744
1485.28	499.399
1484.41	510.791
1483.54	556.609
1482.66	542.169
1481.79	530.603
1480.92	516.173
1480.05	527.552
1479.18	541.794
1478.3	604.756
1477.43	581.726
1476.56	573.03
1475.69	598.713
1474.81	601.474
1473.94	681.552
1473.07	627.034
1472.19	578.26
1471.32	598.195
1470.45	681.081
1469.57	658.073
1468.7	629.353
1467.83	637.824
1466.95	706.347
1466.08	709.084
1465.2	694.668
1464.33	708.838
1463.45	685.854
1462.58	711.45
1461.7	665.619
1460.83	668.36
1459.95	668.245
1459.08	716.668
1458.2	745.092
1457.32	722.129
1456.45	741.98
1455.57	750.411
1454.7	736.017
1453.82	735.89
1452.94	695.837
1452.07	712.824
1451.19	672.79
1450.31	735.38
1449.43	695.355
1448.56	743.673
1447.68	726.451
1446.8	729.174
1445.92	786.004
1445.05	737.463
1444.17	771.497
1443.29	788.442
1442.41	839.531
1441.53	791.014
1440.65	850.619
1439.77	856.16
1438.9	875.919
1438.02	867.237
1437.14	858.558
1436.26	847.039
1435.38	795.738
1434.5	781.393
1433.62	707.393
1432.74	727.153
1431.86	718.507
1430.98	678.63
1430.1	658.64
1429.22	678.395
1428.33	638.545
1427.45	695.184
1426.57	689.389
1425.69	641.049
1424.81	629.594
1423.93	612.472
1423.05	660.561
1422.16	677.453
1421.28	640.493
1420.4	614.88
1419.52	626.105
1418.63	659.987
1417.75	606.063
1416.87	676.748
1415.99	580.373
1415.1	645.376
1414.22	611.302
1413.34	642.322
1412.45	596.944
1411.57	676.042
1410.68	608.05
1409.8	656.014
1408.92	630.455
1408.03	624.693
1407.15	610.453
1406.26	573.613
1405.38	663.919
1404.49	635.557
1403.61	576.138
1402.72	592.98
1401.84	573.115
1400.95	629.47
1400.06	592.671
1399.18	598.211
1398.29	575.537
1397.41	603.645
1396.52	609.18
1395.63	603.435
1394.75	594.872
1393.86	603.225
1392.97	625.666
1392.09	591.744
1391.2	588.823
1390.31	653.508
1389.42	619.598
1388.54	560.357
1387.65	594.044
1386.76	655.868
1385.87	647.311
1384.98	619.059
1384.09	655.526
1383.21	655.411
1382.32	703.109
1381.43	655.183
1380.54	688.806
1379.65	621.223
1378.76	663.272
1377.87	685.637
1376.98	657.422
1376.09	654.499
1375.2	648.767
1374.31	730.087
1373.42	648.541
1372.53	659.656
1371.64	726.899
1370.75	707.13
1369.86	650.895
1368.96	653.586
1368.07	689.932
1367.18	723.461
1366.29	698.103
1365.4	667.146
1364.51	667.03
1363.61	661.309
1362.72	717.227
1361.83	652.675
1360.94	666.565
1360.04	663.648
1359.15	646.734
1358.26	666.216
1357.36	696.886
1356.47	665.983
1355.58	699.44
1354.68	702.116
1353.79	679.619
1352.9	713.056
1352	682.177
1351.11	690.444
1350.21	693.118
1349.32	732.118
1348.42	704.052
1347.53	703.929
1346.63	742.906
1345.74	692.513
1344.84	711.936
1343.95	731.351
1343.05	692.151
1342.15	731.096
1341.26	728.178
1340.36	672.262
1339.47	691.667
1338.57	725.008
1337.67	691.425
1336.78	763.78
1335.88	774.795
1334.98	691.063
1334.08	677.012
1333.19	718.677
1332.29	682.345
1331.39	679.441
1330.49	726.652
1329.6	734.876
1328.7	679.085
1327.8	731.836
1326.9	753.966
1326	673.165
1325.1	717.547
1324.2	697.956
1323.3	703.394
1322.4	706.051
1321.51	669.797
1320.61	758.6
1319.71	786.25
1318.81	722.224
1317.91	716.543
1317.01	721.971
1316.1	752.384
1315.2	702.287
1314.3	688.288
1313.4	710.366
1312.5	657.528
1311.6	718.439
1310.7	754.368
1309.8	701.55
1308.9	679.247
1307.99	729.024
1307.09	723.353
1306.19	728.768
1305.29	761.887
1304.38	720.203
1303.48	764.389
1302.58	739.334
1301.68	786.27
1300.77	761.219
1299.87	827.508
1298.97	832.897
1298.06	877.017
1297.16	912.823
1296.25	898.835
1295.35	801.896
1294.45	837.697
1293.54	796.087
1292.64	793.184
1291.73	757.123
1290.83	776.329
1289.92	762.381
1289.02	742.915
1288.11	676.514
1287.21	748.176
1286.3	767.367
1285.39	684.438
1284.49	709.152
1283.58	717.304
1282.68	645.46
1281.77	672.926
1280.86	675.565
1279.96	686.474
1279.05	617.443
1278.14	633.87
1277.23	666.825
1276.33	619.873
1275.42	630.782
1274.51	592.115
1273.6	586.504
1272.7	613.931
1271.79	572.535
1270.88	591.699
1269.97	599.85
1269.06	550.224
1268.15	541.876
1267.24	596.783
1266.33	533.436
1265.43	552.587
1264.52	552.49
1263.61	533.155
1262.7	522.07
1261.79	568.682
1260.88	543.861
1259.97	557.497
1259.06	499.737
1258.14	477.686
1257.23	483.092
1256.32	485.752
1255.41	507.617
1254.5	532.218
1253.59	455.323
1252.68	501.864
1251.77	444.195
1250.85	477.015
1249.94	523.528
1249.03	476.847
1248.12	413.743
1247.2	509.554
1246.29	460.161
1245.38	457.341
1244.47	492.856
1243.55	487.294
1242.64	478.997
1241.73	426.916
1240.81	437.786
1239.9	454.123
1238.98	418.485
1238.07	434.82
1237.16	492.162
1236.24	437.401
1235.33	431.857
1234.41	415.384
1233.5	472.689
1232.58	448.02
1231.67	480.717
1230.75	434.208
1229.84	409.558
1228.92	453.164
1228	442.166
1227.09	431.173
1226.17	411.997
1225.25	455.573
1224.34	439.127
1223.42	447.231
1222.5	449.879
1221.59	387.1
1220.67	430.641
1219.75	446.916
1218.84	427.764
1217.92	422.241
1217	446.679
1216.08	438.431
1215.16	392.068
1214.25	405.61
1213.33	400.095
1212.41	438.122
1211.49	389.07
1210.57	457.009
1209.65	416.131
1208.73	399.742
1207.81	440.454
1206.89	426.784
1205.97	415.837
1205.05	461.96
1204.13	467.312
1203.21	426.483
1202.29	404.68
1201.37	382.885
1200.45	407.252
1199.53	423.467
1198.61	396.252
1197.69	423.318
1196.77	398.825
1195.84	434.019
1194.92	433.942
1194	406.749
1193.08	412.099
1192.16	431.001
1191.23	452.607
1190.31	420.01
1189.39	406.39
1188.46	376.521
1187.54	444.162
1186.62	408.882
1185.69	387.151
1184.77	408.737
1183.85	403.252
1182.92	422.122
1182	405.815
1181.08	375.989
1180.15	440.83
1179.23	383.968
1178.3	410.935
1177.38	427.081
1176.45	410.79
1175.53	380.994
1174.6	434.959
1173.68	402.468
1172.75	426.703
1171.82	407.726
1170.9	448.15
1169.97	431.875
1169.05	394.016
1168.12	402.041
1167.19	404.668
1166.27	396.504
1165.34	434.19
1164.41	420.631
1163.48	428.644
1162.56	425.873
1161.63	425.797
1160.7	420.333
1159.77	431.034
1158.84	422.878
1157.92	398.566
1156.99	441.576
1156.06	382.272
1155.13	403.737
1154.2	422.503
1153.27	414.356
1152.34	392.762
1151.41	387.313
1150.48	398.001
1149.55	419.44
1148.62	368.289
1147.69	408.54
1146.76	443.403
1145.83	357.346
1144.9	381.46
1143.97	424.366
1143.04	386.695
1142.11	367.832
1141.18	453.669
1140.25	450.904
1139.32	442.774
1138.38	418.548
1137.45	431.887
1136.52	415.718
1135.59	442.46
1134.65	469.192
1133.72	450.345
1132.79	493.147
1131.86	546.653
1130.92	519.764
1129.99	546.459
1129.06	557.075
1128.12	546.265
1127.19	519.395
1126.26	540.717
1125.32	479.065
1124.39	457.573
1123.45	465.518
1122.52	449.386
1121.58	462.678
1120.65	441.204
1119.71	441.126
1118.78	390.26
1117.84	422.261
1116.91	438.219
1115.97	403.41
1115.03	403.338
1114.1	421.961
1113.16	421.886
1112.23	397.784
1111.29	395.044
1110.35	410.986
1109.42	397.572
1108.48	405.505
1107.54	389.429
1106.6	373.358
1105.67	386.624
1104.73	405.216
1103.79	413.14
1102.85	413.067
1101.91	436.974
1100.98	420.912
1100.04	383.548
1099.1	410.11
1098.16	386.074
1097.22	420.612
1096.28	396.583
1095.34	417.802
1094.4	383.138
1093.46	396.371
1092.52	343.106
1091.58	388.252
1090.64	396.159
1089.7	390.772
1088.76	393.361
1087.82	417.207
1086.88	427.76
1085.94	379.868
1085	403.704
1084.06	419.565
1083.11	419.49
1082.17	390.216
1081.23	395.454
1080.29	403.345
1079.35	392.66
1078.4	403.201
1077.46	387.216
1076.52	413.664
1075.57	387.078
1074.63	400.263
1073.69	408.142
1072.74	413.369
1071.8	405.347
1070.86	407.924
1069.91	444.928
1068.97	450.145
1068.02	452.712
1067.08	476.454
1066.14	561.057
1065.19	515.974
1064.25	497.363
1063.3	521.08
1062.36	552.723
1061.41	515.606
1060.46	441.492
1059.52	430.84
1058.57	385.837
1057.63	385.768
1056.68	390.983
1055.73	382.989
1054.79	359.153
1053.84	356.449
1052.89	353.745
1051.95	353.682
1051	345.702
1050.05	356.194
1049.1	382.511
1048.16	361.342
1047.21	385.011
1046.26	398.125
1045.31	345.332
1044.36	295.193
1043.41	329.397
1042.46	331.973
1041.52	350.353
1040.57	313.418
1039.62	363.395
1038.67	334.369
1037.72	342.206
1036.77	350.04
1035.82	323.664
1034.87	331.499
1033.92	326.178
1032.97	355.05
1032.02	320.803
1031.07	323.374
1030.11	323.316
1029.16	336.399
1028.21	336.339
1027.26	338.906
1026.31	325.712
1025.36	317.775
1024.4	296.712
1023.45	336.038
1022.5	341.228
1021.55	317.547
1020.59	301.747
1019.64	296.446
1018.69	320
1017.73	327.81
1016.78	364.459
1015.83	317.206
1014.87	304.044
1013.92	285.646
1012.97	330.137
1012.01	311.74
1011.06	343.114
1010.1	353.528
1009.15	314.191
1008.19	324.606
1007.24	314.078
1006.28	366.359
1005.33	285.185
1004.37	329.605
1003.41	329.546
1002.46	303.337
1001.5	300.668
1000.55	329.368
999.589	300.56
998.633	313.572
997.676	370.993
996.719	316.072
995.761	302.956
994.804	300.291
993.846	297.626
992.889	313.235
991.931	328.837
990.973	315.732
990.014	326.11
989.056	305.185
988.097	318.17
987.139	297.253
986.18	286.771
985.221	310.179
984.261	281.456
983.302	333.518
982.342	281.355
981.382	369.863
980.422	260.42
979.462	281.204
978.502	301.979
977.541	262.883
976.581	330.496
975.62	301.817
974.659	332.979
973.698	327.717
972.736	319.857
971.775	332.8
970.813	296.347
969.851	306.69
968.889	337.818
967.927	342.953
966.964	280.548
966.002	353.219
965.039	303.817
964.076	298.57
963.113	293.325
962.15	303.653
961.186	293.219
960.223	280.195
959.259	344.993
958.295	290.468
957.331	298.195
956.367	292.956
955.402	318.824
954.437	303.217
953.473	318.709
952.508	370.465
951.542	321.185
950.577	282.281
949.611	313.301
948.646	302.89
947.68	302.835
946.714	289.841
945.748	294.964
944.781	297.498
943.815	328.482
942.848	315.493
941.881	315.436
940.914	323.134
939.947	315.322
938.979	323.018
938.012	307.458
937.044	297.069
936.076	304.764
935.108	322.785
934.139	309.818
933.171	289.111
932.202	340.677
931.233	299.329
930.264	345.714
929.295	335.334
928.326	304.325
927.356	288.799
926.387	296.481
925.417	329.937
924.447	332.455
923.476	324.665
922.506	316.877
921.535	324.547
920.565	319.338
919.594	360.478
918.623	332.095
917.651	347.479
916.68	331.975
915.708	313.904
914.737	331.855
913.765	339.512
912.792	349.737
911.82	383.098
910.848	370.176
909.875	357.258
908.902	416.298
907.929	354.56
906.956	369.909
905.982	351.864
905.009	362.072
904.035	372.276
903.061	377.342
902.087	387.54
901.113	374.64
900.138	359.179
899.164	338.593
898.189	335.968
897.214	358.984
896.239	346.101
895.263	374.234
894.288	399.795
893.312	422.783
892.336	363.784
891.36	420.069
890.384	373.896
889.408	355.905
888.431	381.441
887.454	345.538
886.478	360.831
885.5	350.531
884.523	388.84
883.546	358.077
882.568	386.142
881.59	350.277
880.612	414.122
879.634	373.153
878.656	350.087
877.677	390.903
876.699	365.287
875.72	408.639
874.741	383.03
873.762	375.301
872.782	387.996
871.803	372.613
870.823	413.373
869.843	397.991
868.863	420.875
867.883	400.397
866.902	400.324
865.922	443.591
864.941	443.511
863.96	405.204
862.979	410.226
861.997	425.437
861.016	397.342
860.034	435.47
859.052	465.944
858.07	384.398
857.088	425.052
856.105	460.602
855.123	445.252
854.14	465.522
853.157	470.525
852.174	457.725
851.191	442.387
850.207	452.475
849.224	462.559
848.24	411.654
847.256	429.363
846.272	495.329
845.287	431.747
844.303	439.287
843.318	472.211
842.333	378.208
841.348	406.056
840.363	416.132
839.377	405.908
838.392	372.861
837.406	365.185
836.42	420.901
835.434	418.289
834.447	397.936
833.461	390.262
832.474	392.724
831.487	359.721
830.5	384.983
829.513	374.784
828.525	377.248
827.538	339.208
826.55	382.173
825.562	359.329
824.574	354.204
823.586	344.021
822.597	349.017
821.609	364.125
820.62	336.249
819.631	351.354
818.641	310.854
817.652	373.968
816.662	351.163
815.673	303.107
814.683	353.561
813.693	335.822
812.702	320.613
811.712	310.459
810.721	338.162
809.73	350.716
808.739	343.084
807.748	358.155
806.757	342.96
805.765	325.248
804.774	345.356
803.782	304.967
802.79	357.83
801.797	332.57
800.805	347.623
799.812	342.523
798.819	322.316
797.826	297.081
796.833	324.716
795.84	332.207
794.846	276.789
793.853	369.823
792.859	321.964
791.865	336.995
790.87	336.933
789.876	319.274
788.881	346.865
787.887	299.054
786.892	341.713
785.896	354.212
784.901	334.054
783.906	311.392
782.91	306.314
781.914	328.851
780.918	371.458
779.922	328.731
778.925	371.323
777.929	346.17
776.932	333.567
775.935	353.567
774.938	361.024
773.94	368.478
772.943	350.867
771.945	350.803
770.947	305.644
769.949	345.666
768.951	350.611
767.952	328.012
766.954	335.463
765.955	325.39
764.956	302.807
763.957	340.283
762.957	382.749
761.958	367.672
760.958	332.595
759.958	340.035
758.958	367.471
757.958	372.402
756.957	339.849
755.957	362.273
754.956	357.211
753.955	359.643
752.954	324.618
751.952	317.069
750.951	329.492
749.949	314.458
748.947	339.353
747.945	356.754
746.943	346.712
745.941	366.599
744.938	344.092
743.935	354
742.932	351.443
741.929	353.871
740.925	391.18
739.922	383.635
738.918	333.752
737.914	341.161
736.91	388.405
735.906	355.972
734.901	395.729
733.897	373.261
732.892	350.801
731.887	345.762
730.882	355.647
729.876	365.528
728.871	323.197
727.865	335.567
726.859	355.387
725.853	347.868
724.847	367.678
723.84	347.74
722.833	392.378
721.826	362.511
720.819	354.997
719.812	402.091
718.805	367.275
717.797	387.057
716.789	399.389
715.781	364.593
714.773	332.289
713.765	379.335
712.756	394.139
711.748	403.98
710.739	361.781
709.73	349.327
708.72	346.786
707.711	354.153
706.701	393.706
705.691	361.45
704.681	366.334
703.671	383.59
702.661	376.097
701.65	378.502
700.64	373.486
699.629	410.512
698.618	370.876
697.606	407.889
696.595	368.269
695.583	358.317
694.571	400.253
693.559	370.536
692.547	370.469
691.535	382.747
690.522	387.615
689.509	397.417
688.496	362.793
687.483	387.401
686.47	374.995
685.456	379.859
684.442	394.587
683.429	377.254
682.414	419.094
681.4	369.721
680.386	379.511
679.371	369.586
678.356	413.86
677.341	386.691
676.326	357.069
675.311	376.701
674.295	391.401
673.279	369.179
672.263	415.865
671.247	381.344
670.231	351.756
669.214	324.638
668.198	390.97
667.181	344.187
666.164	361.33
665.146	405.5
664.129	375.94
663.111	370.957
662.093	385.627
661.075	390.467
660.057	378.119
659.039	370.685
658.02	412.342
657.001	365.64
655.983	390.108
654.963	358.147
653.944	377.702
652.925	353.111
651.905	384.918
650.885	372.591
649.865	397.03
648.845	416.56
647.824	389.534
646.804	367.418
645.783	418.779
644.762	374.628
643.741	421.073
642.719	420.996
641.698	381.763
640.676	415.947
639.654	384.069
638.632	357.094
637.609	398.599
636.587	391.191
635.564	447.343
634.541	405.711
633.518	400.749
632.495	393.346
631.471	385.946
630.448	417.624
629.424	405.338
628.4	405.263
627.376	388.102
626.351	412.435
625.327	456.279
624.302	407.404
623.277	395.133
622.252	443.833
621.226	412.055
620.201	424.168
619.175	394.842
618.149	416.701
617.123	392.26
616.097	475.01
615.07	409.164
614.044	401.783
613.017	384.667
611.99	406.503
610.963	408.862
609.935	413.653
608.908	425.741
607.88	420.797
606.852	445.039
605.824	408.485
604.795	376.806
603.767	386.459
602.738	386.387
601.709	405.753
600.68	398.391
599.65	417.747
598.621	395.815
597.591	415.165
596.561	378.677
595.531	424.72
594.501	444.053
593.47	378.467
592.44	397.802
591.409	407.43
590.378	402.505
589.347	409.703
588.315	429.018
587.284	421.669
586.252	394.939
585.22	414.245
584.188	404.481
583.155	426.2
582.123	438.227
581.09	406.677
580.057	435.645
579.024	416.206
577.99	425.806
576.957	416.052
575.923	425.649
574.889	437.66
573.855	442.414
572.821	384.321
571.786	442.25
570.752	434.92
569.717	410.682
568.682	429.928
567.647	444.338
566.611	439.427
565.576	412.792
564.54	434.437
563.504	405.399
562.467	429.451
561.431	455.906
560.394	463.056
559.358	434.035
558.321	400.202
557.284	407.36
556.246	443.434
555.209	390.342
554.171	493.86
553.133	438.37
552.095	433.472
551.057	445.431
550.018	440.533
548.979	423.604
547.94	437.964
546.901	411.417
545.862	454.64
544.823	428.1
543.783	444.853
542.743	437.558
541.703	442.284
540.663	451.815
539.622	415.689
538.582	410.807
537.541	415.535
536.5	456.283
535.459	398.573
534.417	415.303
533.376	470.43
532.334	403.151
531.292	429.468
530.25	426.989
529.207	412.52
528.165	414.841
527.122	429.149
526.079	465.025
525.036	438.576
523.992	443.287
522.949	498.306
521.905	433.541
520.861	416.697
519.817	442.958
518.773	406.967
517.728	418.858
516.684	425.96
515.639	435.451
514.594	411.448
513.548	454.422
512.503	432.817
511.457	435.127
510.411	415.923
509.365	439.745
508.319	473.116
507.273	465.861
506.226	463.386
505.179	453.747
504.132	472.764
503.085	463.127
502.037	489.296
500.99	448.637
499.942	453.325
498.894	469.939
497.846	436.461
496.797	448.303
495.749	448.22
494.7	438.601
493.651	428.987
492.602	486.094
491.552	443.121
490.503	443.039
489.453	435.812
488.403	490.495
487.353	464.217
486.303	452.23
485.252	411.69
484.201	475.854
483.15	444.84
482.099	482.812
481.048	432.785
479.996	458.857
478.945	439.755
477.893	420.66
476.841	413.453
475.788	458.515
474.736	458.429
473.683	451.219
472.63	465.382
471.577	460.547
470.524	498.437
469.47	484.106
468.417	467.407
467.363	481.553
466.309	457.746
465.254	438.69
464.2	483.655
463.145	469.342
462.09	476.364
461.035	483.384
459.98	459.603
458.925	509.259
457.869	480.745
456.813	487.759
455.757	525.545
454.701	487.577
453.644	487.486
452.588	437.709
451.531	506.228
450.474	473.022
449.417	484.757
448.359	458.66
447.302	505.85
446.244	543.569
445.186	460.766
444.128	541.004
443.069	474.766
442.011	517.186
440.952	559.59
439.893	526.436
438.834	479.132
437.774	505
436.715	521.422
435.655	516.606
434.595	516.51
433.535	521.129
432.474	518.674
431.414	509.149
430.353	490.2
429.292	518.383
428.231	525.354
427.169	534.677
426.108	529.867
425.046	515.641
423.984	527.315
422.922	524.863
421.859	527.118
420.797	491.728
419.734	541.035
418.671	526.822
417.608	557.292
416.544	500.764
415.481	519.475
414.417	533.478
413.353	500.483
412.289	505.087
411.225	528.481
410.16	514.292
409.095	525.935
408.03	558.701
406.965	582.067
405.9	520.946
404.834	530.233
403.768	567.666
402.702	555.833
401.636	574.488
400.57	623.612
399.503	571.928
398.436	536.668
397.37	524.852
396.302	529.439
395.235	557.446
394.167	550.317
393.1	557.237
392.032	536.065
390.964	521.922
389.895	528.844
388.827	575.536
387.758	580.106
386.689	633.788
385.62	605.61
384.55	575.104
383.481	560.972
382.411	584.236
381.341	565.435
380.271	560.656
379.2	595.586
378.13	586.133
377.059	588.358
375.988	581.244
374.917	581.135
373.846	574.026
372.774	618.245
371.702	604.134
370.63	601.688
369.558	631.887
368.486	585.143
367.413	594.357
366.34	622.21
365.267	542.875
364.194	531.125
363.121	521.709
362.047	558.869
360.973	551.78
359.899	600.559
358.825	581.827
357.751	570.084
356.676	595.567
355.601	569.869
354.526	562.785
353.451	588.256
352.376	602.093
351.3	557.82
350.224	562.362
349.148	604.077
348.072	594.672
346.996	606.172
345.919	619.991
344.842	608.266
343.765	601.188
342.688	545.377
341.61	563.837
340.533	593.889
339.455	598.416
338.377	640.046
337.299	584.279
336.22	588.806
335.141	607.236
334.063	630.295
332.984	644.077
331.904	555.933
330.825	620.675
329.745	622.873
328.665	659.797
327.585	562.458
326.505	634.093
325.424	652.483
324.344	622.287
323.263	601.354
322.182	582.741
321.1	633.495
320.019	644.934
318.937	598.589
317.855	658.555
316.773	674.603
315.691	605.18
314.608	658.183
313.526	625.733
312.443	655.626
311.359	616.264
310.276	641.533
309.193	639.104
308.109	641.291
307.025	641.17
305.941	611.071
304.856	663.983
303.772	679.993
302.687	626.858
301.602	635.956
300.517	598.976
299.431	672.57
298.346	630.991
297.26	633.174
296.174	639.96
295.088	672.062
294.001	653.526
292.915	655.703
291.828	639.477
290.741	639.356
289.654	650.733
288.566	632.218
287.479	618.307
286.391	636.575
285.303	634.157
284.214	659.307
283.126	691.338
282.037	640.687
280.948	629.086
279.859	665.695
278.77	713.766
277.681	702.158
276.591	653.847
275.501	681.248
274.411	655.893
273.321	713.091
272.23	673.985
271.139	680.733
270.048	714.978
268.957	703.387
267.866	705.545
266.774	698.54
265.682	680.089
264.59	702.855
263.498	721.034
262.406	693.435
261.313	707.032
260.221	674.871
259.128	711.339
258.034	649.46
256.941	706.497
255.847	704.077
254.753	735.941
253.659	658.109
252.565	715.101
251.471	689.839
250.376	728.533
249.281	730.678
248.186	755.652
247.091	718.989
245.995	769.058
244.9	716.434
243.804	766.485
242.708	720.724
241.611	793.559
240.515	738.69
239.418	850.245
238.321	793.107
237.224	731.435
236.126	792.807
235.029	817.712
233.931	810.725
232.833	767.31
231.735	744.4
230.636	764.743
229.538	785.078
228.439	805.406
227.34	755.209
226.241	791.454
225.141	757.196
224.042	759.326
222.942	845.556
221.842	822.669
220.741	831.602
219.641	815.542
218.54	863.084
217.439	756.19
216.338	835.511
215.237	839.893
214.135	880.585
213.034	828.228
211.932	800.846
210.829	809.767
209.727	852.702
208.624	802.657
207.522	816.107
206.419	822.751
205.315	881.513
204.212	815.641
203.108	831.343
202.005	824.391
200.9	876.315
199.796	860.3
198.692	925.779
197.587	882.604
196.482	853.022
195.377	841.548
194.272	814.247
193.166	800.524
192.06	838.807
190.955	822.824
189.848	847.528
188.742	849.627
187.635	797.503
186.529	849.304
185.422	871.725
184.314	846.722
183.207	871.394
182.099	801.259
180.992	886.858
179.883	832.541
178.775	854.94
177.667	895.373
176.558	865.889
175.449	881.505
174.34	838.51
173.231	896.945
172.121	921.559
171.011	925.889
169.901	878.414
168.791	889.506
167.681	909.6
166.57	934.188
165.46	929.509
164.349	931.582
163.237	875.16
162.126	917.731
161.014	962.534
159.902	955.605
158.79	957.671
157.678	984.459
156.565	961.8
155.453	945.889
154.34	959.187
153.227	911.84
152.113	1014.96
151	954.148
149.886	944.987
148.772	915.632
147.658	993.989
146.543	1016.23
145.429	944.266
144.314	953.056
143.199	1049.28
142.084	981.833
140.968	1066.81
139.853	1035.24
138.737	1017.12
137.621	1140.12
136.504	1124.22
135.388	1081.47
134.271	1072.31
133.154	1078.81
132.037	1114.41
130.919	1105.25
129.802	1172.15
128.684	1176.4
127.566	1138.16
126.448	1115.58
125.329	1104.2
124.211	1211.25
123.092	1193.15
121.973	1206.32
120.853	1282.03
119.734	1232.66
118.614	1250.28
117.494	1256.74
116.374	1292.21
115.253	1361.14
114.133	1331.87
113.012	1320.47
111.891	1331.36
110.77	1299.89
109.648	1328.62
108.527	1346.2
107.405	1225.61
106.283	1298.9
105.16	1207.32
104.038	1200.41
102.915	1113.34
101.792	1148.75
100.669	1173.01
