3201.26	42.1129
3200.67	21.0564
3200.08	16.8426
3199.48	92.6203
3198.89	54.7219
3198.3	63.1311
3197.7	33.6648
3197.11	58.9046
3196.51	25.241
3195.92	33.6496
3195.32	58.8779
3194.73	-8.40986
3194.13	29.43
3193.54	46.2402
3192.95	42.0302
3192.35	63.0358
3191.76	54.6228
3191.16	33.6089
3190.56	16.8019
3189.97	58.7979
3189.37	50.3905
3188.78	50.3829
3188.18	29.3856
3187.59	58.7623
3186.99	4.19667
3186.4	25.1762
3185.8	25.1724
3185.2	25.1686
3184.61	16.7765
3184.01	46.1285
3183.42	0
3182.82	46.1146
3182.22	8.3832
3181.63	46.1006
3181.03	29.3323
3180.43	37.7073
3179.84	20.9453
3179.24	46.0727
3178.64	50.2536
3178.05	20.9358
3177.45	-8.37306
3176.85	37.6731
3176.25	54.4084
3175.66	8.36926
3175.06	16.736
3174.46	25.1002
3173.86	37.6446
3173.27	50.1852
3172.67	37.6332
3172.07	37.6275
3171.47	58.5228
3170.87	37.6161
3170.28	37.6104
3169.68	41.783
3169.08	54.3097
3168.48	20.8852
3167.88	54.2932
3167.28	54.285
3166.68	50.1016
3166.09	41.745
3165.49	20.8694
3164.89	25.0394
3164.29	62.5891
3163.69	54.2357
3163.09	29.1994
3162.49	37.5364
3161.89	25.0205
3161.29	33.3556
3160.69	12.5065
3160.09	45.85
3159.49	54.1782
3158.89	33.3354
3158.29	45.8292
3157.69	45.8223
3157.09	24.9902
3156.49	45.8084
3155.89	16.6551
3155.29	37.4682
3154.69	54.1126
3154.09	4.16187
3153.49	37.4512
3152.89	16.6424
3152.29	37.4398
3151.69	45.7529
3151.08	66.5395
3150.48	41.5809
3149.88	37.4171
3149.28	12.4705
3148.68	16.6248
3148.08	16.6223
3147.48	33.2395
3146.87	49.8517
3146.27	-4.15368
3145.67	20.7652
3145.07	29.0669
3144.47	24.9107
3143.86	16.6046
3143.26	45.6558
3142.66	58.0986
3142.06	33.1941
3141.45	45.635
3140.85	53.9241
3140.25	24.8843
3139.64	58.0545
3139.04	0
3138.44	70.4734
3137.84	74.6075
3137.23	45.5866
3136.63	29.0052
3136.03	74.5736
3135.42	37.2811
3134.82	45.5589
3134.21	41.4109
3133.61	41.4046
3133.01	49.678
3132.4	45.5312
3131.8	33.1086
3131.19	41.3795
3130.59	20.6866
3129.99	33.0935
3129.38	33.0885
3128.78	8.27087
3128.17	33.0784
3127.57	24.8051
3126.96	16.5342
3126.36	61.9938
3125.75	37.1906
3125.15	57.8433
3124.54	33.0483
3123.94	33.0433
3123.33	28.9085
3122.73	28.9041
3122.12	45.4138
3121.52	20.6395
3120.91	37.1455
3120.3	0
3119.7	61.8903
3119.09	33.0031
3118.49	24.7486
3117.88	20.6207
3117.27	53.6056
3116.67	41.2288
3116.06	28.8558
3115.45	61.8245
3114.85	37.089
3114.24	37.0834
3113.63	12.3593
3113.03	45.3104
3112.42	28.8295
3111.81	49.4145
3111.21	8.23449
3110.6	37.0496
3109.99	24.696
3109.38	16.4615
3108.78	24.6884
3108.17	45.2553
3107.56	28.7944
3106.95	12.3386
3106.34	45.2346
3105.74	24.6697
3105.13	24.6659
3104.52	0
3103.91	4.10973
3103.3	0
3102.7	41.0848
3102.09	41.0786
3101.48	36.9651
3100.87	12.3198
3100.26	36.9538
3099.65	53.3697
3099.04	49.2568
3098.43	36.937
3097.82	49.2418
3097.21	57.44
3096.61	49.2268
3096	41.0161
3095.39	20.5049
3094.78	49.2043
3094.17	36.8976
3093.56	28.6938
3092.95	28.6894
3092.34	16.3915
3091.73	28.6807
3091.12	24.5797
3090.51	20.48
3089.9	4.09537
3089.28	40.9474
3088.67	4.09412
3088.06	16.374
3087.45	24.5572
3086.84	16.369
3086.23	36.8246
3085.62	81.82
3085.01	32.723
3084.4	16.359
3083.79	32.713
3083.17	32.7081
3082.56	20.4394
3081.95	32.6981
3081.34	32.6931
3080.73	53.1182
3080.12	36.7685
3079.5	40.8477
3078.89	32.6732
3078.28	28.5847
3077.67	48.9948
3077.05	65.3164
3076.44	24.4899
3075.83	53.0534
3075.22	48.9649
3074.6	44.8777
3073.99	28.5542
3073.38	0
3072.77	40.7792
3072.15	36.6957
3071.54	48.9201
3070.93	44.8366
3070.31	32.6035
3069.7	4.07481
3069.08	28.5193
3068.47	12.2207
3067.86	28.5106
3067.24	32.5786
3066.63	32.5736
3066.02	32.5687
3065.4	61.0569
3064.79	36.6285
3064.17	44.7614
3063.56	36.6174
3062.94	44.7477
3062.33	40.6735
3061.71	28.4671
3061.1	28.4628
3060.48	65.0479
3059.87	20.3244
3059.25	32.514
3058.64	32.509
3058.02	32.5041
3057.41	44.6863
3056.79	44.6794
3056.18	28.428
3055.56	56.8474
3054.95	48.7189
3054.33	8.11857
3053.71	28.4107
3053.1	32.4644
3052.48	24.3446
3051.87	8.11361
3051.25	36.5057
3050.63	8.11113
3050.02	44.6044
3049.4	52.7062
3048.78	28.3759
3048.17	32.4247
3047.55	28.3673
3046.93	20.2592
3046.31	4.05123
3045.7	48.6073
3045.08	24.2999
3044.46	32.395
3043.85	24.2925
3043.23	32.3851
3042.61	64.7602
3041.99	28.3283
3041.37	48.5553
3040.76	76.8675
3040.14	16.1802
3039.52	32.3554
3038.9	12.1314
3038.28	52.5614
3037.67	28.298
3037.05	28.2936
3036.43	32.3306
3035.81	40.4071
3035.19	44.441
3034.57	40.3947
3033.95	8.07771
3033.33	36.3441
3032.71	52.489
3032.1	32.296
3031.48	76.6913
3030.86	52.4649
3030.24	24.2109
3029.62	60.518
3029	24.2035
3028.38	44.3662
3027.76	20.1634
3027.14	12.0962
3026.52	0
3025.9	24.185
3025.28	20.151
3024.66	28.2071
3024.04	40.2897
3023.42	32.2269
3022.8	8.05548
3022.17	24.1627
3021.55	60.3976
3020.93	76.4919
3020.31	40.2527
3019.69	20.1233
3019.07	4.02404
3018.45	40.2342
3017.83	28.1596
3017.2	48.2663
3016.58	32.1726
3015.96	32.1677
3015.34	44.2238
3014.72	24.1184
3014.1	48.2293
3013.47	44.2034
3012.85	52.2324
3012.23	32.1381
3011.61	20.0832
3010.98	56.2244
3010.36	12.0462
3009.74	44.1628
3009.12	32.1135
3008.49	20.0678
3007.87	40.1295
3007.25	32.0987
3006.62	4.01172
3006	32.0889
3005.38	32.0839
3004.75	16.0395
3004.13	60.1389
3003.51	20.0432
3002.88	52.1044
3002.26	48.089
3001.63	44.0748
3001.01	32.0495
3000.39	32.0446
2999.76	36.0446
2999.14	36.0391
2998.51	12.0112
2997.89	40.0312
2997.26	48.03
2996.64	32.0151
2996.02	36.0115
2995.39	24.004
2994.77	48.0005
2994.14	35.9949
2993.51	15.9953
2992.89	63.9712
2992.26	55.9662
2991.64	39.9698
2991.01	51.9527
2990.39	47.949
2989.76	23.9708
2989.14	35.9507
2988.51	55.9147
2987.88	51.9128
2987.26	27.9488
2986.63	59.881
2986.01	83.8205
2985.38	11.9725
2984.75	11.9707
2984.13	47.8754
2983.5	47.868
2982.87	15.9536
2982.25	31.9022
2981.62	59.8075
2980.99	19.9328
2980.36	55.8031
2979.74	11.956
2979.11	43.8319
2978.48	23.9046
2977.85	19.9174
2977.23	47.7945
2976.6	55.7517
2975.97	55.7431
2975.34	3.98104
2974.71	43.7847
2974.09	39.7982
2973.46	39.792
2972.83	71.6147
2972.2	99.4495
2971.57	71.5926
2970.94	47.7211
2970.32	51.6899
2969.69	31.8043
2969.06	43.7242
2968.43	51.6661
2967.8	79.474
2967.17	63.5694
2966.54	75.4771
2965.91	47.6624
2965.28	83.3964
2964.65	43.6771
2964.02	63.5205
2963.39	59.5413
2962.76	63.501
2962.13	79.364
2961.5	43.6435
2960.87	75.3726
2960.24	51.5628
2959.61	51.5549
2958.98	55.5121
2958.35	51.539
2957.72	83.2425
2957.09	47.5598
2956.46	59.4406
2955.83	39.621
2955.2	71.3068
2954.57	99.0219
2953.93	55.4437
2953.3	79.1932
2952.67	39.5905
2952.04	71.2519
2951.41	91.0301
2950.78	47.4866
2950.14	43.5227
2949.51	67.252
2948.88	94.9294
2948.25	59.3217
2947.62	67.2209
2946.98	75.1177
2946.35	59.2943
2945.72	90.9039
2945.09	90.8899
2944.45	82.9737
2943.82	82.9609
2943.19	75.0483
2942.55	75.0367
2941.92	110.563
2941.29	134.235
2940.65	55.2646
2940.02	102.619
2939.39	110.495
2938.75	110.478
2938.12	67.0657
2937.49	90.7219
2936.85	153.809
2936.22	106.467
2935.58	63.0817
2934.95	102.492
2934.32	98.5348
2933.68	98.5196
2933.05	70.9232
2932.41	98.4892
2931.78	86.6571
2931.14	98.4588
2930.51	141.759
2929.87	110.24
2929.24	110.223
2928.6	106.27
2927.97	90.5123
2927.33	137.715
2926.7	106.221
2926.06	62.9359
2925.43	114.054
2924.79	121.901
2924.15	94.3602
2923.52	94.3456
2922.88	70.7483
2922.25	74.6672
2921.61	74.6557
2920.97	121.788
2920.34	78.5607
2919.7	98.1857
2919.06	106.024
2918.43	86.3767
2917.79	117.768
2917.15	102.05
2916.52	129.505
2915.88	105.942
2915.24	78.4637
2914.6	109.832
2913.97	113.737
2913.33	109.798
2912.69	113.702
2912.05	129.365
2911.42	74.4714
2910.78	129.325
2910.14	101.877
2909.5	117.532
2908.86	129.265
2908.23	113.579
2907.59	109.646
2906.95	70.4756
2906.31	121.356
2905.67	74.3679
2905.03	133.059
2904.39	93.9094
2903.75	125.193
2903.12	113.439
2902.48	105.599
2901.84	129.046
2901.2	113.386
2900.56	132.915
2899.92	125.077
2899.28	140.69
2898.64	132.853
2898	93.7642
2897.36	144.531
2896.72	121.075
2896.08	132.771
2895.44	101.515
2894.8	121.019
2894.16	81.9676
2893.52	132.689
2892.88	152.178
2892.24	132.648
2891.59	171.635
2890.95	148.208
2890.31	128.687
2889.67	167.657
2889.03	159.834
2888.39	175.4
2887.75	163.682
2887.11	155.863
2886.46	179.215
2885.82	175.292
2885.18	194.738
2884.54	175.238
2883.9	233.614
2883.25	218.006
2882.61	225.757
2881.97	202.371
2881.33	225.687
2880.68	159.513
2880.04	194.497
2879.4	151.684
2878.76	213.881
2878.11	159.414
2877.47	174.939
2876.83	151.59
2876.18	136.022
2875.54	147.658
2874.9	163.175
2874.25	135.958
2873.61	116.518
2872.97	128.15
2872.32	128.13
2871.68	186.342
2871.03	131.972
2870.39	104.785
2869.75	155.213
2869.1	120.271
2868.46	151.285
2867.81	131.869
2867.17	151.238
2866.52	162.847
2865.88	155.068
2865.23	120.159
2864.59	182.149
2863.94	220.869
2863.3	244.081
2862.65	178.19
2862.01	189.782
2861.36	104.557
2860.71	185.851
2860.07	166.466
2859.42	150.957
2858.78	185.765
2858.13	147.041
2857.48	139.28
2856.84	170.205
2856.19	146.972
2855.55	189.488
2854.9	177.859
2854.25	173.965
2853.61	193.265
2852.96	158.453
2852.31	166.156
2851.66	224.083
2851.02	173.83
2850.37	216.289
2849.72	196.947
2849.08	196.916
2848.43	196.885
2847.78	169.836
2847.13	181.387
2846.48	185.218
2845.84	169.756
2845.19	146.585
2844.54	173.561
2843.89	181.246
2843.24	161.94
2842.59	146.494
2841.95	104.072
2841.3	131.033
2840.65	119.453
2840	111.729
2839.35	77.0422
2838.7	138.654
2838.05	73.1674
2837.4	84.7069
2836.75	107.792
2836.1	76.9824
2835.45	92.3645
2834.81	65.4147
2834.16	57.7099
2833.51	53.8542
2832.86	15.3845
2832.21	73.0651
2831.56	23.0696
2830.9	42.2877
2830.25	42.2811
2829.6	61.4902
2828.95	65.3232
2828.3	34.5775
2827.65	46.0961
2827	69.1335
2826.35	42.2417
2825.7	49.9142
2825.05	46.0675
2824.4	84.4439
2823.74	23.0266
2823.09	19.1858
2822.44	26.856
2821.79	19.1799
2821.14	46.0245
2820.49	69.026
2819.83	57.5127
2819.18	42.1694
2818.53	22.9979
2817.88	26.8267
2817.23	38.3179
2816.57	34.4808
2815.92	45.9672
2815.27	53.6201
2814.61	34.4647
2813.96	72.7474
2813.31	61.2514
2812.66	72.7248
2812	53.5783
2811.35	72.7021
2810.7	26.7808
2810.04	19.1262
2809.39	57.3696
2808.73	61.1847
2808.08	34.411
2807.43	49.6971
2806.77	53.5116
2806.12	15.2866
2805.46	49.6739
2804.81	30.5638
2804.15	53.4783
2803.5	57.2892
2802.85	42.0055
2802.19	41.999
2801.54	49.6274
2800.88	41.9859
2800.23	49.612
2799.57	49.6042
2798.92	19.0756
2798.26	49.5888
2797.6	15.2557
2796.95	30.5067
2796.29	41.9401
2795.64	26.685
2794.98	45.7386
2794.33	49.5424
2793.67	49.5347
2793.01	53.3367
2792.36	76.1834
2791.7	26.66
2791.04	53.3118
2790.39	34.2665
2789.73	30.4544
2789.07	72.3178
2788.42	22.8336
2787.76	34.2451
2787.1	22.8265
2786.45	41.8421
2785.79	22.8194
2785.13	45.6317
2784.47	22.8123
2783.82	76.029
2783.16	22.8052
2782.5	34.2024
2781.84	41.7964
2781.18	34.1917
2780.53	53.1788
2779.87	26.5853
2779.21	26.5811
2778.55	37.9671
2777.89	34.165
2777.23	34.1597
2776.57	22.7696
2775.92	41.7377
2775.26	79.6686
2774.6	72.0699
2773.94	49.3033
2773.28	11.3759
2772.62	53.0792
2771.96	34.117
2771.3	26.5313
2770.64	11.3688
2769.98	11.367
2769.32	26.5189
2768.66	45.4539
2768	53.0212
2767.34	64.3728
2766.68	56.7907
2766.02	30.2836
2765.36	52.9881
2764.7	56.7641
2764.04	45.4042
2763.38	34.0478
2762.72	71.8674
2762.06	56.7286
2761.39	34.0318
2760.73	60.4916
2760.07	26.4609
2759.41	34.0159
2758.75	30.2316
2758.09	49.1187
2757.43	60.4443
2756.76	56.6576
2756.1	41.5424
2755.44	7.55199
2754.78	45.3049
2754.12	56.6222
2753.45	67.936
2752.79	30.1891
2752.13	83.0069
2751.46	52.8143
2750.8	52.8061
2750.14	67.8829
2749.48	67.8723
2748.81	45.2411
2748.15	37.695
2747.49	75.3782
2746.82	71.5981
2746.16	41.445
2745.5	41.4386
2744.83	30.1324
2744.17	41.4256
2743.5	18.8269
2742.84	60.2365
2742.18	3.76419
2741.51	41.3996
2740.85	22.5781
2740.18	26.337
2739.52	67.713
2738.85	30.09
2738.19	67.6918
2737.52	67.6812
2736.86	75.1896
2736.19	26.3122
2735.53	90.1992
2734.86	67.6388
2734.2	78.8996
2733.53	41.3219
2732.87	52.5832
2732.2	30.0429
2731.54	67.5858
2730.87	67.5753
2730.2	41.2895
2729.54	71.3071
2728.87	48.7814
2728.2	60.0292
2727.54	52.5174
2726.87	82.5143
2726.21	52.5009
2725.54	44.9937
2724.87	63.7311
2724.2	48.7279
2723.54	59.9634
2722.87	67.4482
2722.2	41.2119
2721.54	71.173
2720.87	56.1804
2720.2	52.4268
2719.53	37.4419
2718.87	63.6412
2718.2	63.6312
2717.53	59.8788
2716.86	37.4184
2716.19	93.5313
2715.52	67.3319
2714.86	48.621
2714.19	52.3528
2713.52	29.9112
2712.85	71.028
2712.18	52.3282
2711.51	48.5828
2710.84	44.8387
2710.17	41.0957
2709.5	59.7661
2708.84	48.5523
2708.17	67.2158
2707.5	44.8035
2706.83	33.5973
2706.16	44.7894
2705.49	29.8549
2704.82	44.7753
2704.15	55.9604
2703.48	29.8409
2702.81	26.1066
2702.14	33.5604
2701.47	59.6536
2700.79	33.5499
2700.12	59.6348
2699.45	52.1723
2698.78	37.2601
2698.11	40.9796
2697.44	52.1477
2696.77	52.1395
2696.1	63.3023
2695.43	52.1231
2694.75	40.9474
2694.08	7.44382
2693.41	48.3772
2692.74	55.8111
2692.07	37.2015
2691.39	44.6348
2690.72	55.7848
2690.05	33.4656
2689.38	59.485
2688.71	44.6068
2688.03	40.8831
2687.36	55.7409
2686.69	55.7322
2686.01	44.5787
2685.34	55.7146
2684.67	51.9921
2683.99	63.1234
2683.32	22.2753
2682.65	66.8155
2681.97	14.8456
2681.3	40.8188
2680.63	29.6818
2679.95	48.2253
2679.28	51.9267
2678.6	66.7524
2677.93	51.9104
2677.26	51.9022
2676.58	44.4806
2675.91	74.1227
2675.23	81.5221
2674.56	51.8695
2673.88	40.7482
2673.21	44.4456
2672.53	40.7354
2671.86	29.6211
2671.18	11.1062
2670.51	40.7162
2669.83	40.7097
2669.16	25.9021
2668.48	29.5978
2667.8	59.1862
2667.13	29.5884
2666.45	36.9797
2665.78	51.7635
2665.1	59.1489
2664.42	11.0887
2663.75	48.0433
2663.07	29.5605
2662.39	44.3337
2661.72	22.1634
2661.04	55.3997
2660.36	66.4692
2659.69	44.3058
2659.01	40.6072
2658.33	51.6738
2657.65	14.7616
2656.98	66.4168
2656.3	77.474
2655.62	22.1319
2654.94	25.8165
2654.26	14.75
2653.59	47.9299
2652.91	33.177
2652.23	40.5433
2651.55	47.9072
2650.87	44.2151
2650.19	40.5241
2649.52	55.2514
2648.84	44.1941
2648.16	11.0468
2647.48	51.5436
2646.8	25.7677
2646.12	22.0831
2645.44	44.1593
2644.76	44.1523
2644.08	22.0727
2643.4	36.782
2642.72	36.7762
2642.04	44.1245
2641.36	51.4704
2640.68	40.4346
2640	47.7789
2639.32	14.6989
2638.64	44.0896
2637.96	51.4298
2637.28	44.0757
2636.6	40.3964
2635.92	62.4209
2635.24	58.7398
2634.56	44.0479
2633.88	33.0307
2633.19	33.0255
2632.51	29.3513
2631.83	25.6784
2631.15	51.3486
2630.47	7.33436
2629.79	62.3322
2629.1	40.3262
2628.42	29.3235
2627.74	32.9838
2627.06	54.9642
2626.38	32.9733
2625.69	29.305
2625.01	54.9382
2624.33	62.2534
2623.65	47.5981
2622.96	40.2689
2622.28	47.583
2621.6	40.2562
2620.91	36.5907
2620.23	32.9265
2619.55	51.2108
2618.86	25.6014
2618.18	54.8514
2617.5	65.8113
2616.81	51.1785
2616.13	47.5153
2615.44	40.1989
2614.76	54.808
2614.07	32.8796
2613.39	73.0543
2612.71	65.7384
2612.02	32.864
2611.34	54.7647
2610.65	25.5528
2609.97	25.5488
2609.28	51.0895
2608.6	36.4867
2607.91	21.8886
2607.23	43.7702
2606.54	54.7041
2605.85	54.6954
2605.17	51.041
2604.48	51.0329
2603.8	47.3802
2603.11	47.3727
2602.42	61.9391
2601.74	65.5722
2601.05	43.7079
2600.37	61.9097
2599.68	65.541
2598.99	32.7653
2598.31	50.9602
2597.62	40.0338
2596.93	32.7498
2596.24	47.2977
2595.56	47.2902
2594.87	50.9199
2594.18	47.2752
2593.49	29.0878
2592.81	65.4373
2592.12	39.9831
2591.43	36.3425
2590.74	79.9409
2590.06	58.1296
2589.37	47.2228
2588.68	58.1112
2587.99	39.9451
2587.3	54.462
2586.61	58.0835
2585.92	25.4075
2585.24	36.2907
2584.55	43.5419
2583.86	83.4422
2583.17	58.0375
2582.48	21.7606
2581.79	32.6357
2581.1	47.133
2580.41	58.0007
2579.72	47.1181
2579.03	25.3673
2578.34	47.1031
2577.65	65.2094
2576.96	47.0882
2576.27	61.5671
2575.58	50.6943
2574.89	43.4453
2574.2	43.4385
2573.51	47.0509
2572.82	57.8996
2572.13	57.8904
2571.43	47.0285
2570.74	47.021
2570.05	65.0957
2569.36	54.2378
2568.67	43.3833
2567.98	18.0735
2567.29	25.2989
2566.59	28.9084
2565.9	68.6467
2565.21	36.1241
2564.52	25.2828
2563.83	39.7239
2563.13	18.0534
2562.44	57.7618
2561.75	32.4859
2561.06	43.3076
2560.36	64.9511
2559.67	25.2547
2558.98	57.716
2558.28	28.8534
2557.59	54.0915
2556.9	57.6884
2556.2	90.1239
2555.51	79.2964
2554.82	25.2267
2554.12	43.2388
2553.43	64.848
2552.73	32.4188
2552.04	39.6167
2551.35	61.2161
2550.65	64.8067
2549.96	17.999
2549.26	25.1946
2548.57	71.9731
2547.87	64.7655
2547.18	43.1701
2546.48	21.5816
2545.79	53.9455
2545.09	32.3622
2544.4	53.9284
2543.7	32.3519
2543.01	46.723
2542.31	50.3091
2541.61	43.1152
2540.92	35.9237
2540.22	39.5097
2539.53	46.6859
2538.83	57.4504
2538.13	32.3107
2537.44	75.3797
2536.74	46.6562
2536.04	25.1186
2535.35	53.8169
2534.65	57.3956
2533.95	57.3864
2533.26	64.5495
2532.56	21.5131
2531.86	71.6988
2531.16	53.7655
2530.47	60.9246
2529.77	39.4155
2529.07	64.4878
2528.37	53.7313
2527.68	46.5597
2526.98	64.457
2526.28	50.1252
2525.58	21.4788
2524.88	35.7923
2524.18	60.8373
2523.48	32.2028
2522.79	35.7752
2522.09	50.0773
2521.39	42.9166
2520.69	50.0614
2519.99	21.4515
2519.29	57.1948
2518.59	75.0562
2517.89	21.4412
2517.19	50.0215
2516.49	10.7172
2515.79	57.1492
2515.09	64.2826
2514.39	24.9948
2513.69	64.2621
2512.99	49.9737
2512.29	53.5347
2511.59	53.5261
2510.89	32.1106
2510.19	53.5091
2509.49	49.9338
2508.79	64.1904
2508.09	10.6967
2507.38	49.9099
2506.68	28.5154
2505.98	32.0747
2505.28	57.0126
2504.58	46.3154
2503.88	32.0594
2503.17	49.8622
2502.47	39.1712
2501.77	60.5276
2501.07	46.2784
2500.36	49.8304
2499.66	35.5874
2498.96	42.6981
2498.26	53.3641
2497.55	39.1274
2496.85	28.4518
2496.15	81.7858
2495.45	49.7747
2494.74	46.212
2494.04	28.4336
2493.33	31.9827
2492.63	39.0837
2491.93	63.945
2491.22	31.9674
2490.52	46.1677
2489.82	67.4651
2489.11	31.9521
2488.41	49.6953
2487.7	42.5891
2487	39.0338
2486.29	56.7674
2485.59	28.3791
2484.88	49.6556
2484.18	39.0089
2483.47	35.4569
2482.77	53.1769
2482.06	60.2575
2481.36	46.0719
2480.65	46.0645
2479.95	42.5143
2479.24	60.219
2478.54	28.3338
2477.83	63.7409
2477.12	63.7307
2476.42	21.2402
2475.71	70.7892
2475	53.0834
2474.3	63.6899
2473.59	38.9154
2472.88	35.372
2472.18	63.6594
2471.47	42.4328
2470.76	60.1035
2470.06	42.4192
2469.35	31.8093
2468.64	38.8718
2467.93	81.2645
2467.23	31.7941
2466.52	63.5779
2465.81	52.9731
2465.1	74.1505
2464.39	49.4258
2463.69	38.8283
2462.98	28.2342
2462.27	31.7584
2461.56	35.2815
2460.85	56.4414
2460.14	35.2702
2459.43	38.791
2458.73	38.7848
2458.02	31.7279
2457.31	42.2972
2456.6	45.8146
2455.89	52.8545
2455.18	63.4152
2454.47	70.4501
2453.76	31.6975
2453.05	56.342
2452.34	66.8954
2451.63	42.243
2450.92	80.9527
2450.21	63.3442
2449.5	45.7412
2448.79	77.3958
2448.08	31.6569
2447.36	21.1012
2446.65	45.7119
2445.94	28.1259
2445.23	56.2428
2444.52	56.2338
2443.81	49.1966
2443.1	49.1888
2442.39	24.5904
2441.67	59.7101
2440.96	56.1887
2440.25	31.6011
2439.54	28.0853
2438.83	63.1819
2438.11	49.1336
2437.4	49.1257
2436.69	31.5757
2435.98	63.1413
2435.26	66.6385
2434.55	28.0538
2433.84	56.0986
2433.12	63.1008
2432.41	66.5957
2431.7	38.5492
2430.98	35.0391
2430.27	28.0268
2429.56	94.5753
2428.84	63.0401
2428.13	35.0166
2427.41	49.0154
2426.7	45.507
2425.99	69.9996
2425.27	41.993
2424.56	45.4851
2423.84	52.4744
2423.13	69.9546
2422.41	66.4462
2421.7	41.9593
2420.98	45.4486
2420.27	87.3871
2419.55	62.9086
2418.84	41.9323
2418.12	52.407
2417.41	41.9189
2416.69	52.3902
2415.97	69.8423
2415.26	69.8311
2414.54	27.9279
2413.83	38.3948
2413.11	38.3886
2412.39	55.829
2411.68	20.9325
2410.96	62.7874
2410.24	52.3144
2409.53	48.8189
2408.81	41.8381
2408.09	62.747
2407.37	27.8831
2406.66	66.2117
2405.94	48.7797
2405.22	66.1904
2404.5	45.2809
2403.79	62.6865
2403.07	55.7124
2402.35	62.6663
2401.63	24.3663
2400.91	48.7248
2400.19	52.1968
2399.48	73.0637
2398.76	59.1373
2398.04	62.6059
2397.32	66.0733
2396.6	52.1548
2395.88	76.4814
2395.16	52.138
2394.44	45.179
2393.72	52.1212
2393	41.6903
2392.28	55.5781
2391.56	52.096
2390.84	65.9777
2390.12	48.6073
2389.4	20.8283
2388.68	45.1208
2387.96	69.4055
2387.24	45.1063
2386.52	65.914
2385.8	55.4976
2385.08	58.9567
2384.36	62.4146
2383.64	45.07
2382.92	45.0627
2382.2	69.3161
2381.48	58.9092
2380.75	72.7584
2380.03	79.675
2379.31	65.8078
2378.59	55.4082
2377.87	79.6365
2377.14	34.619
2376.42	79.6108
2375.7	27.6862
2374.98	51.9033
2374.25	79.5723
2373.53	55.3457
2372.81	34.5855
2372.09	69.1598
2371.36	79.521
2370.64	62.2238
2369.92	62.2137
2369.19	41.4691
2368.47	62.1937
2367.75	48.3651
2367.02	37.995
2366.3	62.1636
2365.57	37.9827
2364.85	72.5008
2364.13	55.2298
2363.4	51.7696
2362.68	48.3105
2361.95	41.4023
2361.23	68.9927
2360.5	65.5325
2359.78	68.9704
2359.05	51.7195
2358.33	55.1585
2357.6	44.8091
2356.88	20.6778
2356.15	62.0233
2355.43	72.3488
2354.7	62.0033
2353.97	86.1017
2353.25	75.7573
2352.52	37.8725
2351.8	72.2904
2351.07	82.6043
2350.34	61.9432
2349.62	34.4073
2348.89	65.3634
2348.16	44.7151
2347.44	37.8297
2346.71	37.8236
2345.98	27.5036
2345.25	51.561
2344.53	58.4263
2343.8	82.4709
2343.07	44.6645
2342.34	37.787
2341.62	54.954
2340.89	82.4176
2340.16	72.1038
2339.43	24.0307
2338.7	61.7832
2337.97	68.6369
2337.25	44.6068
2336.52	44.5996
2335.79	61.7433
2335.06	44.5852
2334.33	58.2942
2333.6	54.8563
2332.87	44.5635
2332.14	41.1289
2331.41	65.1102
2330.68	17.1315
2329.95	78.7922
2329.22	61.6535
2328.49	34.2464
2327.76	58.2094
2327.03	61.6235
2326.3	51.3446
2325.57	68.4484
2324.84	54.7499
2324.11	54.741
2323.38	71.836
2322.65	54.7233
2321.92	47.8751
2321.19	64.9629
2320.46	61.5338
2319.72	37.5979
2318.99	88.8534
2318.26	51.2533
2317.53	47.8287
2316.8	54.6525
2316.07	64.8893
2315.33	78.5375
2314.6	44.3836
2313.87	68.2713
2313.14	78.4993
2312.4	75.0741
2311.67	58.0024
2310.94	51.1703
2310.2	61.3944
2309.47	68.205
2308.74	68.1939
2308.01	51.1372
2307.27	57.9461
2306.54	64.7527
2305.8	64.7423
2305.07	71.5456
2304.34	64.7213
2303.6	27.2466
2302.87	44.2686
2302.13	57.8803
2301.4	88.5085
2300.67	57.8616
2299.93	74.8675
2299.2	51.0378
2298.46	30.6177
2297.73	71.4297
2296.99	71.4181
2296.26	37.4034
2295.52	64.5954
2294.79	74.7826
2294.05	57.7772
2293.31	118.934
2292.58	54.3609
2291.84	74.734
2291.11	50.9468
2290.37	67.918
2289.63	61.1163
2288.9	74.6855
2288.16	57.7022
2287.42	57.6928
2286.69	67.8629
2285.95	71.2445
2285.21	81.409
2284.48	44.0894
2283.74	57.646
2283	50.8559
2282.26	64.407
2281.53	61.0072
2280.79	67.7748
2280.05	67.7638
2279.31	77.9157
2278.57	64.3547
2277.84	50.7981
2277.1	47.4038
2276.36	33.8544
2275.62	64.3129
2274.88	64.3024
2274.14	43.9892
2273.4	98.1139
2272.67	33.8269
2271.93	33.8214
2271.19	33.8159
2270.45	33.8104
2269.71	40.5659
2268.97	70.9787
2268.23	43.9321
2267.49	60.8191
2266.75	40.5395
2266.01	37.1552
2265.27	70.9211
2264.53	47.273
2263.79	60.7697
2263.05	50.6332
2262.31	60.7499
2261.57	43.8678
2260.82	64.1041
2260.08	60.7203
2259.34	53.9648
2258.6	50.5838
2257.86	33.717
2257.12	77.5366
2256.38	64.0415
2255.63	53.9209
2254.89	43.8036
2254.15	84.224
2253.41	57.263
2252.67	60.6216
2251.92	70.7136
2251.18	60.6018
2250.44	70.6906
2249.7	67.3134
2248.95	104.319
2248.21	53.8332
2247.47	60.5525
2246.72	50.4522
2245.98	36.9923
2245.24	63.8853
2244.49	87.4078
2243.75	47.0581
2243	63.8541
2242.26	60.4835
2241.52	47.0351
2240.77	90.6957
2240.03	36.9441
2239.28	43.6541
2238.54	53.7193
2237.79	67.1382
2237.05	36.92
2236.3	60.4047
2235.56	57.0396
2234.81	40.2567
2234.07	97.2711
2233.32	87.1944
2232.58	70.4147
2231.83	53.6406
2231.09	67.0398
2230.34	33.5144
2229.59	50.2635
2228.85	70.3574
2228.1	73.6957
2227.35	53.5881
2226.61	60.2768
2225.86	46.8743
2225.11	26.781
2224.37	63.5944
2223.62	46.8514
2222.87	70.2656
2222.13	50.1815
2221.38	86.9671
2220.63	66.8869
2219.88	53.5008
2219.14	50.1488
2218.39	36.7698
2217.64	43.4481
2216.89	70.1739
2216.14	43.4339
2215.4	53.4484
2214.65	46.7597
2213.9	100.183
2213.15	80.1333
2212.4	80.1202
2211.65	76.7693
2210.9	60.0705
2210.15	66.7342
2209.4	53.3786
2208.65	63.3767
2207.9	50.0261
2207.16	73.3596
2206.41	83.3496
2205.66	93.3363
2204.91	73.3237
2204.15	36.6558
2203.4	66.6361
2202.65	83.2815
2201.9	53.2915
2201.15	43.2922
2200.4	83.2407
2199.65	59.9235
2198.9	76.5564
2198.15	36.6079
2197.4	46.5843
2196.65	73.192
2195.89	29.9373
2195.14	83.1455
2194.39	63.1802
2193.64	86.443
2192.89	63.1596
2192.13	66.4729
2191.38	79.7544
2190.63	69.7737
2189.88	63.1183
2189.12	69.7509
2188.37	86.3441
2187.62	69.7281
2186.87	86.3158
2186.11	73.0245
2185.36	79.6501
2184.61	69.6824
2183.85	56.4003
2183.1	92.8795
2182.35	72.9648
2181.59	43.1085
2180.84	66.3099
2180.08	92.8187
2179.33	53.0306
2178.57	92.7883
2177.82	86.1465
2177.07	56.3173
2176.31	72.8693
2175.56	62.9223
2174.8	86.09
2174.05	76.1441
2173.29	72.8216
2172.53	82.7382
2171.78	102.579
2171.02	52.9351
2170.27	69.466
2169.51	56.2251
2168.76	72.75
2168	59.513
2167.24	62.809
2166.49	72.7143
2165.73	59.4837
2164.97	72.6904
2164.22	56.1607
2163.46	62.7575
2162.7	59.4447
2161.95	89.1525
2161.19	79.2337
2160.43	56.1146
2159.67	75.9074
2158.92	69.2954
2158.16	59.3863
2157.4	65.9739
2156.64	125.33
2155.88	62.6547
2155.13	92.3181
2154.37	75.8203
2153.61	52.7359
2152.85	92.2727
2152.09	88.9626
2151.33	69.1818
2150.57	65.8766
2149.82	65.8658
2149.06	72.4405
2148.3	69.1364
2147.54	79
2146.78	85.5693
2146.02	42.7776
2145.26	49.3507
2144.5	75.6587
2143.74	85.5132
2142.98	95.3644
2142.22	39.4547
2141.46	46.0229
2140.7	115.038
2139.94	78.8704
2139.17	92.0004
2138.41	105.126
2137.65	39.4158
2136.89	75.5345
2136.13	75.5221
2135.37	78.7927
2134.61	62.3673
2133.84	78.7669
2133.08	98.4424
2132.32	65.6175
2131.56	82.0084
2130.8	62.3161
2130.03	52.4681
2129.27	78.6892
2128.51	65.5636
2127.75	72.1081
2126.98	62.2649
2126.22	75.3609
2125.46	91.7287
2124.69	72.0607
2123.93	78.5987
2123.17	45.8417
2122.4	65.4774
2121.64	65.4666
2120.88	78.547
2120.11	62.1728
2119.35	78.5212
2118.58	85.0506
2117.82	91.5779
2117.05	55.5917
2116.29	81.7391
2115.53	84.9947
2114.76	81.7122
2114	84.9667
2113.23	71.8831
2112.47	75.1381
2111.7	71.8594
2110.93	75.1134
2110.17	75.101
2109.4	68.5592
2108.64	71.8121
2107.87	81.5912
2107.1	84.8409
2106.34	91.3521
2105.57	104.385
2104.81	91.322
2104.04	58.6973
2103.27	71.7294
2102.51	84.7571
2101.74	91.2619
2100.97	74.9527
2100.2	68.4238
2099.44	48.8661
2098.67	74.9157
2097.9	68.39
2097.13	81.4033
2096.37	71.6231
2095.6	74.8663
2094.83	74.854
2094.06	100.874
2093.29	65.069
2092.52	74.817
2091.76	78.057
2090.99	117.066
2090.22	81.2826
2089.45	61.7646
2088.68	68.2549
2087.91	68.2436
2087.14	84.4782
2086.37	81.2156
2085.6	84.4503
2084.83	97.4266
2084.06	77.9284
2083.29	55.1902
2082.52	94.1325
2081.75	84.3807
2080.98	87.6116
2080.21	51.9094
2079.44	74.6075
2078.67	90.8116
2077.9	84.3111
2077.13	87.5394
2076.36	64.8333
2075.58	71.3048
2074.81	81.0149
2074.04	84.2415
2073.27	87.4672
2072.5	110.126
2071.73	68.0076
2070.95	55.0446
2070.18	77.6973
2069.41	87.395
2068.64	64.7263
2067.86	58.2441
2067.09	71.1754
2066.32	106.746
2065.55	74.3861
2064.77	58.2056
2064	74.3615
2063.23	80.8144
2062.45	67.8729
2061.68	90.4822
2060.9	100.16
2060.13	96.9132
2059.36	71.0579
2058.58	90.4224
2057.81	80.721
2057.03	116.219
2056.26	103.289
2055.48	87.1354
2054.71	87.121
2053.93	90.3328
2053.16	77.4153
2052.38	64.5021
2051.61	83.8388
2050.83	74.1529
2050.06	83.8111
2049.28	99.9121
2048.51	58.0039
2047.73	90.2133
2046.95	86.977
2046.18	122.392
2045.4	64.4061
2044.63	77.2746
2043.85	96.5772
2043.07	96.5612
2042.3	77.2362
2041.52	96.5293
2040.74	64.3422
2039.96	64.3316
2039.19	86.8332
2038.41	80.3878
2037.63	77.1595
2036.85	96.4334
2036.08	99.6314
2035.3	70.6944
2034.52	106.024
2033.74	118.856
2032.96	77.0829
2032.19	112.394
2031.41	80.2681
2030.63	99.516
2029.85	102.709
2029.07	115.529
2028.29	89.8407
2027.51	134.739
2026.73	70.5657
2025.95	118.659
2025.17	96.1941
2024.39	86.5604
2023.61	92.9568
2022.83	89.7366
2022.05	115.356
2021.27	118.541
2020.49	99.3018
2019.71	96.0826
2018.93	99.2689
2018.15	112.059
2017.37	89.6325
2016.59	115.223
2015.81	121.604
2015.03	108.785
2014.24	111.966
2013.46	99.1537
2012.68	89.5433
2011.9	76.7387
2011.12	57.5445
2010.33	95.8915
2009.55	140.618
2008.77	111.836
2007.99	124.597
2007.2	105.411
2006.42	130.943
2005.64	121.342
2004.86	105.358
2004.07	121.301
2003.29	121.281
2002.51	89.3504
2001.72	149.956
2000.94	86.1307
2000.15	105.253
1999.37	95.669
1998.59	117.972
1997.8	92.4493
1997.02	89.2466
1996.23	152.969
1995.45	92.4032
1994.66	117.874
1993.88	105.114
1993.09	108.281
1992.31	121
1991.52	76.4081
1990.74	76.3954
1989.95	101.844
1989.17	124.101
1988.38	101.81
1987.6	104.974
1986.81	130.4
1986.02	104.939
1985.24	117.639
1984.45	117.62
1983.66	111.243
1982.88	101.691
1982.09	111.206
1981.3	101.658
1980.52	107.993
1979.73	107.975
1978.94	107.957
1978.15	114.289
1977.37	117.444
1976.58	126.945
1975.79	98.3662
1975	98.3498
1974.22	117.366
1973.43	133.204
1972.64	107.814
1971.85	142.671
1971.06	145.817
1970.27	155.301
1969.48	114.08
1968.69	136.239
1967.91	133.049
1967.12	104.521
1966.33	148.838
1965.54	107.652
1964.75	151.954
1963.96	148.764
1963.17	158.233
1962.38	148.714
1961.59	129.708
1960.8	120.197
1960.01	154.965
1959.22	116.995
1958.43	139.106
1957.63	116.956
1956.84	107.455
1956.05	94.7977
1955.26	107.419
1954.47	145.308
1953.68	120.017
1952.89	113.681
1952.09	129.449
1951.3	145.211
1950.51	145.187
1949.72	154.63
1948.93	126.207
1948.13	157.733
1947.34	135.628
1946.55	132.452
1945.76	132.429
1944.96	135.56
1944.17	110.321
1943.38	126.06
1942.58	110.284
1941.79	148.071
1941	138.597
1940.2	160.62
1939.41	151.146
1938.61	160.566
1937.82	166.835
1937.02	125.892
1936.23	154.192
1935.44	151.02
1934.64	144.703
1933.85	138.389
1933.05	150.945
1932.26	141.487
1931.46	157.181
1930.67	138.297
1929.87	138.273
1929.07	157.103
1928.28	116.237
1927.48	147.627
1926.69	147.603
1925.89	122.458
1925.09	150.693
1924.3	144.39
1923.5	156.919
1922.7	163.169
1921.91	163.141
1921.11	138.02
1920.31	169.359
1919.52	119.159
1918.72	166.168
1917.92	147.332
1917.12	178.649
1916.33	134.748
1915.53	181.722
1914.73	162.896
1913.93	169.133
1913.13	203.552
1912.33	153.421
1911.54	169.048
1910.74	156.5
1909.94	168.992
1909.14	156.448
1908.34	172.064
1907.54	165.779
1906.74	178.261
1905.94	137.582
1905.14	165.696
1904.34	162.542
1903.54	165.641
1902.74	168.738
1901.94	159.337
1901.14	178.052
1900.34	187.392
1899.54	184.238
1898.74	149.864
1897.94	202.906
1897.14	199.751
1896.34	168.512
1895.54	174.724
1894.73	168.455
1893.93	180.903
1893.13	159.044
1892.33	143.427
1891.53	168.343
1890.73	162.081
1889.92	208.8
1889.12	180.722
1888.32	186.922
1887.52	165.087
1886.71	177.516
1885.91	189.942
1885.11	199.25
1884.3	183.653
1883.5	189.847
1882.7	171.144
1881.89	189.783
1881.09	164.866
1880.29	205.27
1879.48	177.249
1878.68	202.092
1877.87	170.972
1877.07	198.916
1876.27	189.56
1875.46	186.422
1874.66	186.39
1873.85	208.101
1873.05	192.539
1872.24	198.716
1871.44	207.996
1870.63	204.857
1869.82	192.41
1869.02	245.126
1868.21	214.061
1867.41	198.516
1866.6	220.192
1865.79	182.946
1864.99	195.316
1864.18	201.483
1863.38	216.945
1862.57	176.626
1861.76	238.56
1860.95	207.543
1860.15	213.702
1859.34	170.314
1858.53	179.574
1857.72	198.117
1856.92	244.51
1856.11	198.05
1855.3	188.735
1854.49	194.89
1853.68	185.579
1852.88	173.178
1852.07	194.792
1851.26	222.582
1850.45	228.727
1849.64	231.779
1848.83	213.201
1848.02	182.271
1847.21	244.017
1846.4	222.358
1845.59	228.496
1844.78	213.021
1843.97	206.812
1843.16	194.432
1842.35	231.428
1841.54	215.963
1840.73	197.419
1839.92	225.143
1839.11	212.771
1838.3	188.07
1837.49	206.534
1836.68	215.746
1835.87	191.057
1835.06	209.511
1834.25	206.395
1833.43	206.361
1832.62	203.246
1831.81	218.607
1831	221.649
1830.19	230.845
1829.37	236.961
1828.56	233.844
1827.75	233.805
1826.94	187.628
1826.12	218.35
1825.31	199.864
1824.5	212.128
1823.68	221.313
1822.87	242.789
1822.06	221.239
1821.24	218.129
1820.43	172.017
1819.61	227.269
1818.8	193.454
1817.99	239.474
1817.17	230.224
1816.36	242.462
1815.54	230.147
1814.73	208.631
1813.91	211.664
1813.1	257.634
1812.28	223.859
1811.47	214.623
1810.65	214.587
1809.84	242.135
1809.02	251.288
1808.2	232.862
1807.39	217.505
1806.57	199.091
1805.75	235.807
1804.94	238.829
1804.12	257.157
1803.3	220.383
1802.49	205.044
1801.67	226.428
1800.85	250.865
1800.04	311.999
1799.22	244.664
1798.4	226.276
1797.58	259.867
1796.77	253.71
1795.95	241.442
1795.13	235.29
1794.31	271.913
1793.49	229.101
1792.67	290.146
1791.86	274.829
1791.04	253.411
1790.22	235.052
1789.4	268.586
1788.58	244.127
1787.76	231.882
1786.94	274.551
1786.12	265.354
1785.3	201.269
1784.48	280.51
1783.66	268.268
1782.84	259.079
1782.02	280.368
1781.2	295.555
1780.38	249.808
1779.56	246.72
1778.74	261.906
1777.92	249.682
1777.1	246.595
1776.27	261.773
1775.45	228.252
1774.63	261.685
1773.81	240.344
1772.99	249.429
1772.17	215.932
1771.34	261.508
1770.52	243.222
1769.7	258.38
1768.88	246.179
1768.05	331.222
1767.23	255.21
1766.41	279.469
1765.58	276.384
1764.76	294.558
1763.94	294.508
1763.11	309.636
1762.29	282.268
1761.47	264.012
1760.64	273.07
1759.82	263.923
1758.99	294.209
1758.17	272.931
1757.35	266.821
1756.52	248.587
1755.7	287.948
1754.87	260.624
1754.05	242.4
1753.22	257.507
1752.4	281.695
1751.57	272.562
1750.74	266.46
1749.92	257.332
1749.09	311.774
1748.27	305.668
1747.44	266.279
1746.61	275.311
1745.79	347.861
1744.96	260.095
1744.13	299.362
1743.31	290.241
1742.48	278.1
1741.65	259.919
1740.83	268.941
1740	287.023
1739.17	277.912
1738.34	292.966
1737.51	289.897
1736.69	301.925
1735.86	313.948
1735.03	292.768
1734.2	301.771
1733.37	271.548
1732.54	256.418
1731.72	292.569
1730.89	283.473
1730.06	286.44
1729.23	313.523
1728.4	301.413
1727.57	292.321
1726.74	262.14
1725.91	301.26
1725.08	325.305
1724.25	307.181
1723.42	304.118
1722.59	289.013
1721.76	285.954
1720.93	294.934
1720.1	273.821
1719.27	303.86
1718.43	297.792
1717.6	270.674
1716.77	294.684
1715.94	270.582
1715.11	306.608
1714.28	303.55
1713.45	264.435
1712.61	282.416
1711.78	342.447
1710.95	297.337
1710.12	315.304
1709.28	342.272
1708.45	327.205
1707.62	279.127
1706.78	354.101
1705.95	282.033
1705.12	320.983
1704.28	275.938
1703.45	311.877
1702.62	320.819
1701.78	320.765
1700.95	278.748
1700.11	341.633
1699.28	320.601
1698.45	299.576
1697.61	329.478
1696.78	326.427
1695.94	353.32
1695.11	314.341
1694.27	296.328
1693.44	332.191
1692.6	335.126
1691.76	314.127
1690.93	355.951
1690.09	293.086
1689.26	370.78
1688.42	343.81
1687.58	304.893
1686.75	331.739
1685.91	334.67
1685.07	325.651
1684.24	298.711
1683.4	364.366
1682.56	325.484
1681.73	322.443
1680.89	358.21
1680.05	349.195
1679.21	355.104
1678.37	331.175
1677.54	307.254
1676.7	325.097
1675.86	372.754
1675.02	348.838
1674.18	354.741
1673.34	318.914
1672.51	345.68
1671.67	348.601
1670.83	345.562
1669.99	369.331
1669.15	351.401
1668.31	378.138
1667.47	360.212
1666.63	386.938
1665.79	336.281
1664.95	383.831
1664.11	362.941
1663.27	389.649
1662.43	359.843
1661.59	383.569
1660.75	359.721
1659.9	368.577
1659.06	368.514
1658.22	377.365
1657.38	362.446
1656.54	386.148
1655.7	386.082
1654.85	365.23
1654.01	397.825
1653.17	374.011
1652.33	359.108
1651.49	406.524
1650.64	406.454
1649.8	391.554
1648.96	385.555
1648.11	403.281
1647.27	403.212
1646.43	367.572
1645.58	394.183
1644.74	391.153
1643.9	349.607
1643.05	402.868
1642.21	396.876
1641.36	370.157
1640.52	402.662
1639.68	378.911
1638.83	364.048
1637.99	343.271
1637.14	343.212
1636.3	390.485
1635.45	372.672
1634.61	399.224
1633.76	366.632
1632.91	393.175
1632.07	419.709
1631.22	348.713
1630.38	366.381
1629.53	378.135
1628.68	404.654
1627.84	404.585
1626.99	398.61
1626.14	377.877
1625.3	380.764
1624.45	368.894
1623.6	404.239
1622.75	368.768
1621.91	374.604
1621.06	374.54
1620.21	336.144
1619.36	362.62
1618.52	318.343
1617.67	397.861
1616.82	341.807
1615.97	377.102
1615.12	397.657
1614.27	379.918
1613.42	400.465
1612.57	359.18
1611.72	412.103
1610.88	382.601
1610.03	391.364
1609.18	373.644
1608.33	388.288
1607.48	364.693
1606.63	358.749
1605.78	323.407
1604.93	379.204
1604.07	358.565
1603.22	390.828
1602.37	376.071
1601.52	373.069
1600.67	387.69
1599.82	334.766
1598.97	355.261
1598.12	358.136
1597.26	384.489
1596.41	355.078
1595.56	369.688
1594.71	363.757
1593.86	375.427
1593	398.823
1592.15	363.57
1591.3	372.302
1590.45	339.997
1589.59	366.314
1588.74	407.271
1587.89	348.611
1587.03	412.989
1586.18	360.206
1585.32	415.776
1584.47	374.72
1583.62	348.312
1582.76	374.591
1581.91	430.121
1581.05	377.388
1580.2	359.773
1579.34	418.201
1578.49	365.498
1577.63	406.364
1576.78	409.217
1575.92	403.302
1575.07	400.311
1574.21	391.478
1573.36	397.253
1572.5	408.866
1571.64	443.836
1570.79	405.806
1569.93	446.602
1569.07	420.259
1568.22	350.156
1567.36	414.28
1566.5	408.375
1565.65	387.89
1564.79	399.487
1563.93	373.179
1563.07	416.84
1562.22	346.821
1561.36	355.503
1560.5	343.788
1559.64	401.988
1558.78	460.168
1557.92	349.435
1557.07	430.896
1556.21	448.287
1555.35	395.822
1554.49	427.764
1553.63	407.324
1552.77	392.709
1551.91	372.282
1551.05	410.022
1550.19	401.229
1549.33	404.067
1548.47	421.436
1547.61	424.27
1546.75	412.575
1545.89	438.649
1545.03	418.242
1544.17	409.458
1543.31	432.615
1542.45	391.899
1541.58	432.466
1540.72	438.196
1539.86	406.205
1539	438.045
1538.14	382.861
1537.28	408.895
1536.41	458.115
1535.55	455.137
1534.69	463.755
1533.83	408.613
1532.96	472.287
1532.1	446.133
1531.24	431.574
1530.37	440.188
1529.51	451.694
1528.65	480.566
1527.78	411.016
1526.92	434.097
1526.05	448.489
1525.19	422.375
1524.33	454.12
1523.46	399.094
1522.6	375.893
1521.73	416.302
1520.87	401.778
1520	404.599
1519.14	407.418
1518.27	421.793
1517.41	450.605
1516.54	407.208
1515.67	392.7
1514.81	438.824
1513.94	432.976
1513.08	398.269
1512.21	389.544
1511.34	458.717
1510.48	403.832
1509.61	406.646
1508.74	452.713
1507.88	458.401
1507.01	441.026
1506.14	438.068
1505.27	455.282
1504.41	443.679
1503.54	452.244
1502.67	457.926
1501.8	446.329
1500.93	452.01
1500.06	449.053
1499.2	425.952
1498.33	466.164
1497.46	443.067
1496.59	414.225
1495.72	442.914
1494.85	425.584
1493.98	422.635
1493.11	457.057
1492.24	500.09
1491.37	451.152
1490.5	499.917
1489.63	430.888
1488.76	396.349
1487.89	479.557
1487.02	410.567
1486.15	459.297
1485.28	447.737
1484.41	453.399
1483.54	473.404
1482.66	421.687
1481.79	524.867
1480.92	435.88
1480.05	475.944
1479.18	481.595
1478.3	490.11
1477.43	461.369
1476.56	458.424
1475.69	464.074
1474.81	504.092
1473.94	472.505
1473.07	512.507
1472.19	458.028
1471.32	569.574
1470.45	517.965
1469.57	586.544
1468.7	512.064
1467.83	560.599
1466.95	523.326
1466.08	537.531
1465.2	588.895
1464.33	531.629
1463.45	582.976
1462.58	588.589
1461.7	571.347
1460.83	525.548
1459.95	611.13
1459.08	576.761
1458.2	582.37
1457.32	605.104
1456.45	622.122
1455.57	564.948
1454.7	650.434
1453.82	633.208
1452.94	573.21
1452.07	507.531
1451.19	584.415
1450.31	615.667
1449.43	538.615
1448.56	612.604
1447.68	643.835
1446.8	609.544
1445.92	655.003
1445.05	626.416
1444.17	614.92
1443.29	646.124
1442.41	694.392
1441.53	722.725
1440.65	711.22
1439.77	753.763
1438.9	736.568
1438.02	693.79
1437.14	739.156
1436.26	696.392
1435.38	645.116
1434.5	616.59
1433.62	610.801
1432.74	562.408
1431.86	548.11
1430.98	567.891
1430.1	576.31
1429.22	536.471
1428.33	578.948
1427.45	533.447
1426.57	573.073
1425.69	521.916
1424.81	479.285
1423.93	533.077
1423.05	561.335
1422.16	566.906
1421.28	487.455
1420.4	518.539
1419.52	526.948
1418.63	532.522
1417.75	506.941
1416.87	495.526
1415.99	526.582
1415.1	551.966
1414.22	537.72
1413.34	523.478
1412.45	568.653
1411.57	520.468
1410.68	548.659
1409.8	540.08
1408.92	537.159
1408.03	531.413
1407.15	511.537
1406.26	483.191
1405.38	514.184
1404.49	519.744
1403.61	477.291
1402.72	508.269
1401.84	496.888
1400.95	544.788
1400.06	541.871
1399.18	499.45
1398.29	496.542
1397.41	507.739
1396.52	516.111
1395.63	499.103
1394.75	527.209
1393.86	493.291
1392.97	566.482
1392.09	512.844
1391.2	532.476
1390.31	529.567
1389.42	498.495
1388.54	577.252
1387.65	537.737
1386.76	546.088
1385.87	540.364
1384.98	526.2
1384.09	576.75
1383.21	537.269
1382.32	556.862
1381.43	556.765
1380.54	522.931
1379.65	598.736
1378.76	590.2
1377.87	606.957
1376.98	604.042
1376.09	601.127
1375.2	561.703
1374.31	598.11
1373.42	510.972
1372.53	550.182
1371.64	609.023
1370.75	600.499
1369.86	569.533
1368.96	546.993
1368.07	591.771
1367.18	611.297
1366.29	594.368
1365.4	625.099
1364.51	557.727
1363.61	602.464
1362.72	621.971
1361.83	568.64
1360.94	537.733
1360.04	588.043
1359.15	607.538
1358.26	557.046
1357.36	596.131
1356.47	576.439
1355.58	587.53
1354.68	595.819
1353.79	646.057
1352.9	576.037
1352	587.12
1351.11	609.38
1350.21	667.965
1349.32	651.082
1348.42	592.298
1347.53	617.334
1346.63	628.398
1345.74	647.835
1344.84	577.924
1343.95	644.817
1343.05	644.705
1342.15	613.897
1341.26	613.79
1340.36	602.525
1339.47	580.108
1338.57	605.103
1337.67	613.361
1336.78	590.954
1335.88	618.721
1334.98	590.747
1334.08	587.858
1333.19	621.182
1332.29	682.345
1331.39	637.672
1330.49	604.152
1329.6	598.479
1328.7	598.374
1327.8	609.4
1326.9	581.472
1326	570.243
1325.1	578.487
1324.2	592.289
1323.3	558.823
1322.4	617.1
1321.51	603.096
1320.61	589.096
1319.71	558.432
1318.81	597.223
1317.91	574.901
1317.01	533.148
1316.1	602.463
1315.2	555.168
1314.3	585.6
1313.4	632.67
1312.5	563.199
1311.6	593.614
1310.7	646.205
1309.8	524.083
1308.9	632.116
1307.99	632.005
1307.09	598.637
1306.19	631.784
1305.29	590.116
1304.38	620.482
1303.48	645.3
1302.58	595.344
1301.68	603.545
1300.77	578.527
1299.87	603.334
1298.97	677.939
1298.06	708.253
1297.16	705.363
1296.25	666.52
1295.35	685.76
1294.45	619.287
1293.54	630.235
1292.64	630.125
1291.73	627.251
1290.83	574.649
1289.92	618.744
1289.02	591.018
1288.11	568.824
1287.21	604.615
1286.3	571.385
1285.39	585.084
1284.49	562.906
1283.58	549.013
1282.68	557.192
1281.77	570.884
1280.86	496.334
1279.96	476.948
1279.05	504.429
1278.14	551.191
1277.23	523.54
1276.33	517.938
1275.42	443.475
1274.51	446.152
1273.6	451.58
1272.7	457.007
1271.79	467.937
1270.88	478.863
1269.97	478.779
1269.06	442.93
1268.15	451.105
1267.24	451.025
1266.33	393.203
1265.43	417.877
1264.52	439.793
1263.61	395.744
1262.7	425.899
1261.79	403.847
1260.88	453.218
1259.97	392.719
1259.06	450.312
1258.14	395.327
1257.23	411.726
1256.32	406.165
1255.41	430.789
1254.5	414.252
1253.59	416.923
1252.68	381.198
1251.77	435.969
1250.85	433.151
1249.94	383.737
1249.03	411.075
1248.12	342.502
1247.2	424.628
1246.29	323.208
1245.38	413.524
1244.47	388.809
1243.55	366.839
1242.64	391.409
1241.73	355.764
1240.81	363.909
1239.9	402.145
1238.98	380.193
1238.07	415.677
1237.16	371.856
1236.24	407.329
1235.33	358.059
1234.41	388.056
1233.5	428.973
1232.58	382.456
1231.67	316.836
1230.75	371.398
1229.84	352.22
1228.92	343.968
1228	343.907
1227.09	390.239
1226.17	354.7
1225.25	392.829
1224.34	354.575
1223.42	351.785
1222.5	381.715
1221.59	357.113
1220.67	348.874
1219.75	384.238
1218.84	386.895
1217.92	332.344
1217	356.799
1216.08	354.012
1215.16	334.891
1214.25	391.999
1213.33	378.321
1212.41	345.599
1211.49	337.376
1210.57	350.918
1209.65	364.455
1208.73	310.004
1207.81	358.888
1206.89	345.233
1205.97	312.558
1205.05	353.264
1204.13	331.466
1203.21	323.258
1202.29	290.609
1201.37	334.006
1200.45	350.237
1199.53	342.031
1198.61	358.255
1197.69	382.614
1196.77	339.137
1195.84	355.353
1194.92	341.729
1194	341.669
1193.08	298.23
1192.16	311.731
1191.23	311.675
1190.31	344.137
1189.39	346.786
1188.46	368.395
1187.54	333.122
1186.62	362.849
1185.69	343.833
1184.77	357.307
1183.85	286.877
1182.92	319.298
1182	335.474
1181.08	327.3
1180.15	324.537
1179.23	278.512
1178.3	386.603
1177.38	327.068
1176.45	340.523
1175.53	310.74
1174.6	348.507
1173.68	334.94
1172.75	345.683
1171.82	326.721
1170.9	332.063
1169.97	342.801
1169.05	331.945
1168.12	337.283
1167.19	299.454
1166.27	312.888
1165.34	272.38
1164.41	339.74
1163.48	307.33
1162.56	309.971
1161.63	309.916
1160.7	336.805
1159.77	323.276
1158.84	320.525
1157.92	320.468
1156.99	336.567
1156.06	358.044
1155.13	309.532
1154.2	312.168
1153.27	295.969
1152.34	328.198
1151.41	295.864
1150.48	330.771
1149.55	325.335
1148.62	287.642
1147.69	325.22
1146.76	333.224
1145.83	335.852
1144.9	316.988
1143.97	346.476
1143.04	346.414
1142.11	332.928
1141.18	295.287
1140.25	362.334
1139.32	295.183
1138.38	330.009
1137.45	289.713
1136.52	335.256
1135.59	351.286
1134.65	356.586
1133.72	332.397
1132.79	396.662
1131.86	423.388
1130.92	391.162
1129.99	396.45
1129.06	348.172
1128.12	393.632
1127.19	398.917
1126.26	353.34
1125.32	398.775
1124.39	339.835
1123.45	353.152
1122.52	315.64
1121.58	312.91
1120.65	294.136
1119.71	259.329
1118.78	315.416
1117.84	304.67
1116.91	325.992
1115.97	291.203
1115.03	315.192
1114.1	285.759
1113.16	301.729
1112.23	331.042
1111.29	293.614
1110.35	338.93
1109.42	304.183
1108.48	296.125
1107.54	333.415
1106.6	306.687
1105.67	269.303
1104.73	322.573
1103.79	290.531
1102.85	327.789
1101.91	279.77
1100.98	301.032
1100.04	348.922
1099.1	335.544
1098.16	268.92
1097.22	311.466
1096.28	276.81
1095.34	324.661
1094.4	279.372
1093.46	313.905
1092.52	289.911
1091.58	287.2
1090.64	244.609
1089.7	297.731
1088.76	276.415
1087.82	273.709
1086.88	260.376
1085.94	265.642
1085	292.154
1084.06	257.581
1083.11	273.465
1082.17	329.162
1081.23	321.141
1080.29	329.044
1079.35	275.923
1078.4	267.916
1077.46	281.129
1076.52	302.293
1075.57	304.89
1074.63	288.931
1073.69	291.53
1072.74	267.63
1071.8	320.569
1070.86	262.237
1069.91	301.916
1068.97	272.735
1068.02	317.693
1067.08	314.989
1066.14	317.579
1065.19	349.275
1064.25	357.149
1063.3	375.601
1062.36	415.203
1061.41	351.67
1060.46	333.101
1059.52	319.826
1058.57	293.342
1057.63	269.509
1056.68	274.745
1055.73	235.076
1054.79	240.316
1053.84	261.396
1052.89	258.709
1051.95	240.187
1051	237.505
1050.05	232.186
1049.1	261.162
1048.16	237.378
1047.21	258.432
1046.26	242.566
1045.31	216.162
1044.36	255.658
1043.41	242.436
1042.46	276.644
1041.52	260.789
1040.57	231.771
1039.62	229.097
1038.67	244.853
1037.72	257.971
1036.77	247.397
1035.82	228.933
1034.87	194.69
1033.92	231.481
1032.97	241.96
1032.02	223.51
1031.07	233.986
1030.11	231.316
1029.16	236.531
1028.21	225.978
1027.26	241.7
1026.31	244.284
1025.36	220.604
1024.4	228.442
1023.45	217.9
1022.5	233.61
1021.55	228.319
1020.59	233.526
1019.64	228.237
1018.69	215.082
1017.73	217.666
1016.78	180.919
1015.83	228.074
1014.87	243.76
1013.92	230.613
1012.97	225.331
1012.01	241.009
1011.06	217.393
1010.1	201.642
1009.15	196.369
1008.19	217.276
1007.24	227.707
1006.28	193.647
1005.33	227.625
1004.37	253.743
1003.41	222.313
1002.46	183.048
1001.5	224.847
1000.55	211.737
999.589	227.38
998.633	224.726
997.676	229.911
996.719	211.585
995.761	211.547
994.804	203.676
993.846	232.357
992.889	200.992
991.931	200.956
990.973	203.529
990.014	234.799
989.056	234.757
988.097	245.147
987.139	268.57
986.18	218.989
985.221	213.737
984.261	213.698
983.302	208.449
982.342	218.832
981.382	218.792
980.422	203.128
979.462	223.921
978.502	208.262
977.541	221.238
976.581	171.754
975.62	213.353
974.659	197.706
973.698	210.676
972.736	213.238
971.775	200.2
970.813	202.763
969.851	215.722
968.889	226.078
967.927	197.458
966.964	207.813
966.002	194.79
965.039	218.125
964.076	218.086
963.113	186.897
962.15	197.245
961.186	228.348
960.223	194.58
959.259	207.514
958.295	220.444
957.331	228.184
956.367	191.847
955.402	222.917
954.437	189.187
953.473	233.202
952.508	191.709
951.542	246.069
950.577	222.717
949.611	194.195
948.646	201.926
947.68	209.655
946.714	238.084
945.748	194.055
944.781	230.237
943.815	204.331
942.848	183.606
941.881	222.356
940.914	186.125
939.947	196.43
938.979	214.484
938.012	198.943
937.044	204.074
936.076	219.534
935.108	227.241
934.139	234.945
933.171	221.996
932.202	188.405
931.233	196.112
930.264	196.077
929.295	208.939
928.326	196.006
927.356	221.756
926.387	188.201
925.417	211.366
924.447	221.636
923.476	206.136
922.506	216.404
921.535	242.123
920.565	224.052
919.594	216.287
918.623	254.864
917.651	223.931
916.68	259.919
915.708	216.131
914.737	262.397
913.765	208.337
912.792	226.3
911.82	218.546
910.848	267.349
909.875	275.012
908.902	290.38
907.929	254.358
906.956	241.468
905.982	261.971
905.009	231.109
904.035	272.146
903.061	248.995
902.087	266.915
901.113	228.377
900.138	223.204
899.164	228.294
898.189	225.688
897.214	235.904
896.239	243.553
895.263	261.451
894.288	271.655
893.312	276.731
892.336	230.567
891.36	245.894
890.384	289.385
889.408	266.289
888.431	263.681
887.454	245.716
886.478	255.908
885.5	237.952
884.523	237.909
883.546	248.096
882.568	281.295
881.59	237.779
880.612	230.068
879.634	250.473
878.656	217.207
877.677	263.157
876.699	258
875.72	247.737
874.741	263.014
873.762	252.754
872.782	255.261
871.803	265.423
870.823	257.72
869.843	288.288
868.863	278.033
867.883	272.882
866.902	249.884
865.922	262.586
864.941	249.793
863.96	282.878
862.979	229.319
861.997	313.346
861.016	252.16
860.034	305.593
859.052	264.799
858.07	287.662
857.088	269.793
856.105	313.006
855.123	315.493
854.14	330.699
853.157	302.662
852.174	335.665
851.191	284.755
850.207	254.199
849.224	294.818
848.24	279.518
847.256	274.386
846.272	289.577
845.287	281.906
844.303	253.923
843.318	271.648
842.333	256.369
841.348	228.406
840.363	256.276
839.377	273.988
838.392	284.084
837.406	248.529
836.42	261.161
835.434	223.088
834.447	268.67
833.461	240.746
832.474	248.303
831.487	273.591
830.5	255.811
829.513	288.685
828.525	263.314
827.538	230.358
826.55	280.935
825.562	253.049
824.574	222.642
823.586	209.954
822.597	235.207
821.609	219.992
820.62	270.516
819.631	207.274
818.641	242.618
817.652	247.627
816.662	250.109
815.673	227.33
814.683	232.34
813.693	227.248
812.702	227.206
811.712	209.497
810.721	219.553
809.73	201.851
808.739	221.996
807.748	227
806.757	244.611
805.765	229.439
804.774	199.147
803.782	209.192
802.79	219.234
801.797	246.908
800.805	229.23
799.812	204.003
798.819	214.038
797.826	211.481
796.833	178.72
795.84	234.055
794.846	234.012
793.853	206.296
792.859	228.896
791.865	211.25
790.87	193.611
789.876	218.715
788.881	216.162
787.887	238.74
786.892	228.646
785.896	253.726
784.901	238.61
783.906	213.454
782.91	220.948
781.914	243.5
780.918	218.357
779.922	218.317
778.925	233.331
777.929	243.323
776.932	218.198
775.935	215.651
774.938	215.611
773.94	223.092
772.943	220.545
771.945	210.482
770.947	200.422
769.949	225.434
768.951	242.924
767.952	205.321
766.954	245.338
765.955	242.791
764.956	222.726
763.957	235.196
762.957	242.658
761.958	227.606
760.958	235.067
759.958	252.526
758.958	194.984
757.958	232.439
756.957	232.397
755.957	212.367
754.956	219.822
753.955	252.249
752.954	212.25
751.952	212.212
750.951	224.654
749.949	244.578
748.947	202.114
747.945	239.499
746.943	241.95
745.941	231.93
744.938	234.381
743.935	246.803
742.932	241.773
741.929	226.777
740.925	246.668
739.922	239.149
738.918	221.671
737.914	236.572
736.91	199.182
735.906	226.528
734.901	243.909
733.897	233.91
732.892	226.404
731.887	243.775
730.882	216.373
729.876	261.092
728.871	231.21
727.865	251.053
726.859	238.581
725.853	223.629
724.847	218.62
723.84	240.934
722.833	235.923
721.826	238.363
720.819	248.25
719.812	245.722
718.805	213.416
717.797	253.076
716.789	240.626
715.781	250.503
714.773	260.376
713.765	223.138
712.756	223.098
711.748	247.841
710.739	232.928
709.73	237.84
708.72	240.273
707.711	252.612
706.701	240.185
705.691	250.044
704.681	230.196
703.671	232.629
702.661	222.689
701.65	272.126
700.64	239.921
699.629	272.026
698.618	279.394
697.606	286.759
696.595	237.274
695.583	237.23
694.571	252.011
693.559	229.733
692.547	229.69
691.535	256.811
690.522	224.668
689.509	227.096
688.496	244.33
687.483	266.493
686.47	261.51
685.456	273.795
684.442	241.684
683.429	236.709
682.414	246.526
681.4	268.664
680.386	241.507
679.371	253.782
678.356	238.955
677.341	238.911
676.326	253.642
675.311	256.058
674.295	248.626
673.279	275.653
672.263	246.074
671.247	278.012
670.231	248.443
669.214	258.235
668.198	275.4
667.181	228.639
666.164	233.513
665.146	245.757
664.129	280.112
663.111	262.864
662.093	277.553
661.075	216.108
660.057	235.71
659.039	265.125
658.02	225.806
657.001	245.396
655.983	237.991
654.963	247.759
653.944	277.145
652.925	304.068
651.905	232.912
650.885	230.418
649.865	272.039
648.845	254.837
647.824	254.79
646.804	235.147
645.783	244.9
644.762	286.48
643.741	259.498
642.719	249.66
641.698	239.825
640.676	283.823
639.654	256.861
638.632	232.355
637.609	266.548
636.587	254.274
635.564	293.339
634.541	266.401
633.518	249.247
632.495	285.848
631.471	271.139
630.448	261.32
629.424	271.039
628.4	231.928
627.376	246.53
626.351	266.008
625.327	270.839
624.302	280.548
623.277	282.935
622.252	258.496
621.226	265.763
620.201	292.529
619.175	272.977
618.149	241.248
617.123	253.385
616.097	253.339
615.07	265.469
614.044	238.635
613.017	275.11
611.99	258.02
610.963	260.406
609.935	313.89
608.908	277.34
607.88	267.559
606.852	291.829
605.824	289.343
604.795	272.273
603.767	298.959
602.738	243.011
601.709	281.841
600.68	257.496
599.65	279.308
598.621	245.26
597.591	274.349
596.561	259.734
595.531	269.394
594.501	257.211
593.47	283.851
592.44	293.501
591.409	276.47
590.378	271.57
589.347	283.641
588.315	264.198
587.284	256.879
586.252	281.061
585.22	271.319
584.188	254.314
583.155	261.532
582.123	292.958
581.09	312.27
580.057	278.329
579.024	278.277
577.99	241.935
576.957	273.336
575.923	290.215
574.889	282.907
573.855	280.437
572.821	290.054
571.786	263.417
570.752	297.195
569.717	282.646
568.682	289.839
567.647	299.445
566.611	282.489
565.576	277.608
564.54	294.452
563.504	279.919
562.467	301.581
561.431	301.525
560.394	301.469
559.358	303.824
558.321	277.249
557.284	294.07
556.246	277.146
555.209	274.685
554.171	264.998
553.133	327.573
552.095	281.757
551.057	279.297
550.018	269.616
548.979	312.889
547.94	283.955
546.901	243.001
545.862	317.526
544.823	281.392
543.783	257.293
542.743	286.096
541.703	249.987
540.663	278.78
539.622	278.728
538.582	261.859
537.541	264.213
536.5	290.58
535.459	292.927
534.417	302.475
533.376	264.017
532.334	275.966
531.292	275.915
530.25	323.84
529.207	287.805
528.165	292.547
527.122	302.083
526.079	268.468
525.036	268.418
523.992	277.953
522.949	287.484
521.905	308.988
520.861	294.562
519.817	292.113
518.773	304.028
517.728	275.25
516.684	260.84
515.639	313.429
514.594	296.626
513.548	303.746
512.503	296.515
511.457	277.334
510.411	250.988
509.365	305.91
508.319	274.79
507.273	281.906
506.226	291.408
505.179	298.518
504.132	298.462
503.085	307.956
502.037	303.125
500.99	293.523
499.942	276.767
498.894	286.257
497.846	281.434
496.797	288.535
495.749	312.323
494.7	319.416
493.651	285.991
492.602	300.235
491.552	321.62
490.503	323.942
489.453	314.356
488.403	311.917
487.353	273.769
486.303	292.759
485.252	314.122
484.201	297.409
483.15	335.414
482.099	306.811
481.048	328.156
479.996	287.677
478.945	292.378
477.893	318.466
476.841	320.783
475.788	311.22
474.736	301.661
473.683	296.855
472.63	303.923
471.577	365.589
470.524	294.315
469.47	322.737
468.417	310.814
467.363	327.361
466.309	308.326
465.254	322.497
464.2	317.695
463.145	301.043
462.09	348.386
461.035	305.669
459.98	345.887
458.925	298.449
457.869	310.235
456.813	298.338
455.757	321.956
454.701	319.529
453.644	307.637
452.588	288.651
451.531	331.177
450.474	366.592
449.417	309.772
448.359	321.535
447.302	335.658
446.244	340.322
445.186	323.718
444.128	314.208
443.069	321.235
442.011	349.514
440.952	344.726
439.893	311.612
438.834	330.436
437.774	294.977
436.715	316.156
435.655	323.174
434.595	341.981
433.535	358.424
432.474	367.787
431.414	370.076
430.353	372.363
429.292	322.811
428.231	336.886
427.169	343.889
426.108	332.05
425.046	324.925
423.984	331.926
422.922	284.791
421.859	341.215
420.797	407.028
419.734	352.849
418.671	369.246
417.608	352.717
416.544	315.034
415.481	345.533
414.417	324.317
413.353	371.25
412.289	347.688
411.225	380.506
410.16	385.132
409.095	356.884
408.03	359.165
406.965	333.28
405.9	349.644
404.834	337.848
403.768	384.699
402.702	450.295
401.636	478.349
400.57	405.583
399.503	440.666
398.436	400.743
397.37	433.472
396.302	421.677
395.235	388.807
394.167	358.291
393.1	398.027
392.032	325.384
390.964	411.92
389.895	428.223
388.827	393.049
387.758	367.245
386.689	425.643
385.62	390.49
384.55	409.119
383.481	402.03
382.411	420.65
381.341	371.505
380.271	387.787
379.2	355.016
378.13	415.664
377.059	375.895
375.988	406.171
374.917	359.417
373.846	382.684
372.774	417.607
371.702	436.189
370.63	405.79
369.558	410.377
368.486	407.968
367.413	382.253
366.34	372.86
365.267	426.378
364.194	389.026
363.121	419.231
362.047	393.537
360.973	388.807
359.899	391.061
358.825	390.988
357.751	411.856
356.676	437.37
355.601	418.679
354.526	390.694
353.451	413.872
352.376	409.145
351.3	409.068
350.224	395.048
349.148	390.327
348.072	387.93
346.996	413.405
345.919	385.462
344.842	406.285
343.765	357.463
342.688	406.132
341.61	403.735
340.533	424.538
339.455	419.819
338.377	384.955
337.299	391.838
336.22	398.719
335.141	373.149
334.063	412.472
332.984	391.543
331.904	370.622
330.825	407.607
329.745	372.798
328.665	388.933
327.585	374.972
326.505	411.929
325.424	384.086
324.344	379.387
323.263	356.186
322.182	420.868
321.1	416.165
320.019	402.217
318.937	422.941
317.855	408.997
316.773	441.264
315.691	438.871
314.608	381.053
313.526	438.706
312.443	367.058
311.359	399.302
310.276	449.996
309.193	442.989
308.109	410.61
307.025	410.533
305.941	428.903
304.856	447.266
303.772	410.301
302.687	435.574
301.602	437.796
300.517	412.372
299.431	426.114
298.346	437.548
297.26	402.929
296.174	407.457
295.088	402.777
294.001	448.724
292.915	425.632
291.828	388.747
290.741	441.57
289.654	416.193
288.566	427.609
287.479	462.007
286.391	432.044
285.303	434.26
284.214	420.394
283.126	427.205
282.037	450.088
280.948	436.228
279.859	433.85
278.77	459.013
277.681	463.516
276.591	456.546
275.501	438.109
274.411	470.133
273.321	451.701
272.23	442.446
271.139	446.946
270.048	449.153
268.957	476.562
267.866	471.89
266.774	453.479
265.682	451.103
264.59	434.992
263.498	462.377
262.406	482.887
261.313	459.914
260.221	473.553
259.128	464.315
258.034	455.079
256.941	473.284
255.847	466.337
254.753	491.389
253.659	500.437
252.565	475.211
251.471	495.679
250.376	472.747
249.281	486.357
248.186	518.226
247.091	470.196
245.995	476.953
244.9	517.932
243.804	515.553
242.708	483.524
241.611	476.591
240.515	512.979
239.418	487.808
238.321	483.157
237.224	471.673
236.126	505.756
235.029	505.66
233.931	539.724
232.833	498.638
231.735	484.884
230.636	543.969
229.538	507.456
228.439	518.736
227.34	564.132
226.241	513.99
225.141	545.727
224.042	522.889
222.942	543.247
221.842	497.692
220.741	508.958
219.641	538.394
218.54	554.191
217.439	533.648
216.338	558.521
215.237	508.475
214.135	533.344
213.034	501.475
211.932	544.485
210.829	528.504
209.727	542.01
208.624	560.046
207.522	532.736
206.419	550.767
205.315	589.186
204.212	550.558
203.108	550.453
202.005	536.76
200.9	559.302
199.796	493.541
198.692	565.879
197.587	538.615
196.482	552.088
195.377	554.246
194.272	554.14
193.166	581.171
192.06	572.017
190.955	619.379
189.848	503.997
188.742	528.757
187.635	539.953
186.529	537.591
185.422	528.455
184.314	537.386
183.207	494.392
182.099	582.323
180.992	588.982
179.883	557.283
178.775	595.525
177.667	590.901
176.558	581.769
175.449	552.35
174.34	631.137
173.231	585.944
172.121	594.845
171.011	592.479
169.901	605.88
168.791	594.505
167.681	580.883
166.57	621.291
165.46	585.163
164.349	600.803
163.237	571.441
162.126	614.07
161.014	627.446
159.902	665.551
158.79	647.439
157.678	602.363
156.565	620.226
155.453	658.303
154.34	649.192
153.227	599.658
152.113	619.753
151	651.065
149.886	599.315
148.772	617.154
147.658	621.524
146.543	634.865
145.429	612.315
144.314	677.23
143.199	659.164
142.084	708.354
140.968	679.084
139.853	669.991
138.737	647.459
137.621	663.015
136.504	660.649
135.388	680.674
134.271	702.931
133.154	711.749
132.037	720.564
130.919	729.376
129.802	731.474
128.684	731.334
127.566	751.319
126.448	760.118
125.329	757.737
124.211	793.349
123.092	755.213
121.973	839.958
120.853	743.757
119.734	803.908
118.614	790.358
117.494	832.619
116.374	812.374
115.253	836.763
114.133	854.451
113.012	847.596
111.891	811.752
110.77	809.367
109.648	813.671
108.527	806.829
107.405	828.958
106.283	842.167
105.16	781.863
104.038	743.852
102.915	748.163
101.792	692.364
100.669	705.586
