3201.26	16.8451
3200.67	54.7467
3200.08	33.6852
3199.48	37.8901
3198.89	25.2563
3198.3	46.2962
3197.7	54.7054
3197.11	46.2822
3196.51	21.0342
3195.92	25.2372
3195.32	46.2612
3194.73	50.4591
3194.13	37.8386
3193.54	25.2219
3192.95	33.6242
3192.35	54.631
3191.76	33.614
3191.16	8.40223
3190.56	0
3189.97	33.5988
3189.37	50.3905
3188.78	75.5744
3188.18	29.3856
3187.59	50.3677
3186.99	37.7701
3186.4	37.7643
3185.8	54.5403
3185.2	50.3372
3184.61	37.7472
3184.01	54.5155
3183.42	33.5429
3182.82	16.7689
3182.22	50.2992
3181.63	46.1006
3181.03	16.7613
3180.43	67.0352
3179.84	29.3234
3179.24	16.7537
3178.64	75.3803
3178.05	66.9946
3177.45	37.6788
3176.85	41.859
3176.25	8.37052
3175.66	58.5848
3175.06	46.024
3174.46	54.3837
3173.86	16.7309
3173.27	8.36419
3172.67	16.7259
3172.07	45.9891
3171.47	33.4416
3170.87	54.3343
3170.28	33.4315
3169.68	45.9613
3169.08	87.731
3168.48	37.5933
3167.88	33.4112
3167.28	12.5273
3166.68	58.4519
3166.09	37.5705
3165.49	37.5649
3164.89	50.0789
3164.29	29.2083
3163.69	12.5159
3163.09	54.2275
3162.49	66.7314
3161.89	45.8709
3161.29	45.8639
3160.69	20.8441
3160.09	50.0182
3159.49	4.16755
3158.89	25.0015
3158.29	45.8292
3157.69	58.3192
3157.09	45.8153
3156.49	45.8084
3155.89	37.4739
3155.29	12.4894
3154.69	12.4875
3154.09	83.2375
3153.49	54.0962
3152.89	29.1243
3152.29	33.2798
3151.69	37.4342
3151.08	12.4762
3150.48	0
3149.88	20.7873
3149.28	20.7841
3148.68	41.562
3148.08	45.7112
3147.48	33.2395
3146.87	24.9258
3146.27	33.2294
3145.67	66.4488
3145.07	-4.15242
3144.47	29.0625
3143.86	33.2093
3143.26	33.2042
3142.66	16.5996
3142.06	16.5971
3141.45	37.3378
3140.85	20.74
3140.25	29.0317
3139.64	58.0545
3139.04	41.4612
3138.44	29.0184
3137.84	53.8832
3137.23	29.0096
3136.63	41.4361
3136.03	37.2868
3135.42	33.1388
3134.82	57.9841
3134.21	53.8342
3133.61	45.5451
3133.01	0
3132.4	70.3665
3131.8	28.97
3131.19	33.1036
3130.59	37.2359
3129.99	28.9568
3129.38	41.3606
3128.78	8.27087
3128.17	16.5392
3127.57	33.0734
3126.96	45.469
3126.36	28.9305
3125.75	41.3229
3125.15	20.6583
3124.54	37.1793
3123.94	20.6521
3123.33	28.9085
3122.73	12.3875
3122.12	49.5423
3121.52	61.9185
3120.91	24.7636
3120.3	20.6332
3119.7	8.25204
3119.09	28.8777
3118.49	49.4972
3117.88	53.6138
3117.27	45.3586
3116.67	32.9831
3116.06	28.8558
3115.45	57.7028
3114.85	61.8151
3114.24	24.7223
3113.63	45.3173
3113.03	37.0721
3112.42	12.3555
3111.81	41.1787
3111.21	24.7035
3110.6	37.0496
3109.99	20.58
3109.38	61.7305
3108.78	41.1474
3108.17	-4.11411
3107.56	57.5888
3106.95	32.9029
3106.34	32.8979
3105.74	32.8929
3105.13	32.8879
3104.52	24.6622
3103.91	24.6584
3103.3	41.0911
3102.7	-4.10848
3102.09	53.4022
3101.48	57.5013
3100.87	41.0661
3100.26	61.5897
3099.65	53.3697
3099.04	24.6284
3098.43	20.5205
3097.82	24.6209
3097.21	28.72
3096.61	41.0223
3096	8.20322
3095.39	24.6059
3094.78	28.7025
3094.17	45.0971
3093.56	57.3876
3092.95	24.5909
3092.34	36.8808
3091.73	24.5834
3091.12	53.256
3090.51	65.5358
3089.9	40.9537
3089.28	24.5685
3088.67	49.1294
3088.06	57.3089
3087.45	32.743
3086.84	32.738
3086.23	40.9162
3085.62	65.456
3085.01	24.5423
3084.4	28.6283
3083.79	28.6239
3083.17	44.9736
3082.56	28.6152
3081.95	65.3962
3081.34	49.0397
3080.73	40.8601
3080.12	28.5977
3079.5	57.1868
3078.89	44.9256
3078.28	32.6682
3077.67	57.1606
3077.05	20.4114
3076.44	32.6532
3075.83	44.8914
3075.22	40.8041
3074.6	32.6383
3073.99	24.475
3073.38	77.4923
3072.77	24.4675
3072.15	40.773
3071.54	24.4601
3070.93	16.3042
3070.31	8.15087
3069.7	40.7481
3069.08	57.0387
3068.47	12.2207
3067.86	36.6565
3067.24	24.4339
3066.63	65.1472
3066.02	8.14216
3065.4	44.7751
3064.79	20.3492
3064.17	36.623
3063.56	40.686
3062.94	48.8157
3062.33	24.4041
3061.71	32.5339
3061.1	28.4628
3060.48	56.9169
3059.87	52.8433
3059.25	65.028
3058.64	12.1909
3058.02	12.189
3057.41	20.3119
3056.79	20.3088
3056.18	32.4892
3055.56	40.6053
3054.95	60.8986
3054.33	36.5336
3053.71	40.5867
3053.1	44.6385
3052.48	44.6317
3051.87	16.2272
3051.25	44.618
3050.63	56.7779
3050.02	16.2198
3049.4	0
3048.78	60.8056
3048.17	48.637
3047.55	32.4197
3046.93	44.5703
3046.31	52.666
3045.7	40.5061
3045.08	-4.04999
3044.46	32.395
3043.85	4.04875
3043.23	-16.1925
3042.61	56.6652
3041.99	56.6565
3041.37	32.3702
3040.76	12.137
3040.14	36.4053
3039.52	36.3998
3038.9	40.438
3038.28	60.6477
3037.67	52.5533
3037.05	4.04195
3036.43	16.1653
3035.81	36.3664
3035.19	24.2405
3034.57	44.4342
3033.95	12.1166
3033.33	64.6118
3032.71	44.4138
3032.1	24.222
3031.48	20.1819
3030.86	40.3577
3030.24	28.246
3029.62	64.5525
3029	64.5426
3028.38	8.06659
3027.76	32.2614
3027.14	44.3527
3026.52	12.0943
3025.9	12.0925
3025.28	72.5437
3024.66	40.2959
3024.04	40.2897
3023.42	36.2552
3022.8	28.1942
3022.17	36.2441
3021.55	60.3976
3020.93	40.2589
3020.31	8.05055
3019.69	52.3205
3019.07	20.1202
3018.45	24.1405
3017.83	24.1368
3017.2	12.0666
3016.58	8.04315
3015.96	68.3563
3015.34	16.0814
3014.72	40.1973
3014.1	60.2866
3013.47	72.3329
3012.85	64.286
3012.23	44.1899
3011.61	16.0666
3010.98	40.1603
3010.36	20.0771
3009.74	36.1332
3009.12	68.2411
3008.49	28.095
3007.87	24.0777
3007.25	24.074
3006.62	56.1641
3006	48.1333
3005.38	44.1154
3004.75	60.1482
3004.13	40.0926
3003.51	48.1038
3002.88	48.0964
3002.26	40.0742
3001.63	48.0816
3001.01	52.0804
3000.39	-4.00557
2999.76	28.0347
2999.14	-4.00434
2998.51	24.0224
2997.89	20.0156
2997.26	24.015
2996.64	24.0113
2996.02	60.0191
2995.39	36.0059
2994.77	32.0004
2994.14	19.9972
2993.51	7.99763
2992.89	0
2992.26	47.9711
2991.64	47.9637
2991.01	55.9491
2990.39	59.9362
2989.76	19.9757
2989.14	23.9671
2988.51	39.9391
2987.88	27.9531
2987.26	31.9414
2986.63	35.9286
2986.01	43.906
2985.38	47.8901
2984.75	71.8241
2984.13	59.8442
2983.5	35.901
2982.87	59.8258
2982.25	47.8533
2981.62	51.8331
2980.99	35.879
2980.36	27.9016
2979.74	71.7359
2979.11	59.7707
2978.48	19.9205
2977.85	3.98349
2977.23	35.8459
2976.6	91.5921
2975.97	39.8165
2975.34	55.7346
2974.71	23.8826
2974.09	47.7578
2973.46	75.6049
2972.83	55.7003
2972.2	55.6917
2971.57	55.6832
2970.94	67.6049
2970.32	43.7376
2969.69	31.8043
2969.06	43.7242
2968.43	43.7174
2967.8	59.6055
2967.17	63.5694
2966.54	59.5872
2965.91	43.6905
2965.28	63.5401
2964.65	31.7652
2964.02	55.5805
2963.39	67.4802
2962.76	59.5322
2962.13	51.5866
2961.5	71.4166
2960.87	75.3726
2960.24	71.3947
2959.61	63.4521
2958.98	55.5121
2958.35	43.6099
2957.72	47.5671
2957.09	63.4131
2956.46	75.2914
2955.83	51.5073
2955.2	79.2298
2954.57	71.2958
2953.93	27.7219
2953.3	39.5966
2952.67	35.6314
2952.04	51.4597
2951.41	71.2409
2950.78	126.631
2950.14	43.5227
2949.51	59.34
2948.88	79.1078
2948.25	87.0052
2947.62	31.6334
2946.98	59.3034
2946.35	79.0591
2945.72	59.2852
2945.09	71.1312
2944.45	94.827
2943.82	82.9609
2943.19	43.449
2942.55	98.7325
2941.92	71.0764
2941.29	98.7021
2940.65	86.8444
2940.02	63.1499
2939.39	74.9789
2938.75	90.7499
2938.12	90.7359
2937.49	98.6108
2936.85	110.427
2936.22	78.8643
2935.58	98.5652
2934.95	106.434
2934.32	82.7692
2933.68	63.0525
2933.05	70.9232
2932.41	94.5496
2931.78	129.986
2931.14	137.842
2930.51	133.883
2929.87	78.7428
2929.24	122.032
2928.6	129.885
2927.97	86.577
2927.33	121.976
2926.7	90.4843
2926.06	118.005
2925.43	90.4564
2924.79	86.5102
2924.15	125.814
2923.52	110.07
2922.88	90.4006
2922.25	113.966
2921.61	78.5849
2920.97	117.859
2920.34	86.4167
2919.7	98.1857
2919.06	117.805
2918.43	90.3029
2917.79	82.4378
2917.15	90.275
2916.52	105.959
2915.88	94.1709
2915.24	129.465
2914.6	133.368
2913.97	105.893
2913.33	109.798
2912.69	94.0982
2912.05	137.205
2911.42	129.345
2910.78	105.811
2910.14	94.0401
2909.5	94.0256
2908.86	121.431
2908.23	137.078
2907.59	90.0661
2906.95	109.629
2906.31	140.929
2905.67	86.1102
2905.03	117.405
2904.39	117.387
2903.75	117.369
2903.12	129.085
2902.48	93.8658
2901.84	132.956
2901.2	148.575
2900.56	132.915
2899.92	132.894
2899.28	78.161
2898.64	89.8713
2898	140.646
2897.36	125
2896.72	117.169
2896.08	136.676
2895.44	97.6107
2894.8	156.153
2894.16	132.709
2893.52	163.91
2892.88	140.472
2892.24	136.549
2891.59	124.826
2890.95	140.407
2890.31	116.988
2889.67	187.152
2889.03	175.428
2888.39	187.094
2887.75	151.99
2887.11	198.726
2886.46	179.215
2885.82	202.559
2885.18	237.581
2884.54	198.603
2883.9	206.359
2883.25	218.006
2882.61	163.479
2881.97	175.129
2881.33	175.102
2880.68	213.98
2880.04	186.717
2879.4	198.357
2878.76	202.215
2878.11	174.966
2877.47	143.839
2876.83	143.817
2876.18	159.34
2875.54	139.886
2874.9	81.5877
2874.25	163.15
2873.61	132.053
2872.97	120.383
2872.32	139.778
2871.68	128.11
2871.03	131.972
2870.39	135.832
2869.75	182.375
2869.1	124.151
2868.46	155.164
2867.81	112.477
2867.17	124.093
2866.52	124.074
2865.88	108.548
2865.23	170.549
2864.59	205.402
2863.94	185.995
2863.3	224.71
2862.65	135.58
2862.01	147.178
2861.36	147.155
2860.71	139.388
2860.07	143.238
2859.42	143.216
2858.78	135.453
2858.13	135.432
2857.48	108.329
2856.84	131.522
2856.19	158.576
2855.55	154.684
2854.9	177.859
2854.25	158.502
2853.61	154.612
2852.96	154.588
2852.31	212.525
2851.66	146.813
2851.02	166.105
2850.37	200.839
2849.72	193.085
2849.08	138.999
2848.43	204.606
2847.78	185.275
2847.13	169.809
2846.48	185.218
2845.84	150.466
2845.19	208.305
2844.54	158.133
2843.89	134.971
2843.24	131.094
2842.59	131.074
2841.95	104.072
2841.3	123.325
2840.65	107.893
2840	115.581
2839.35	84.7464
2838.7	96.2878
2838.05	96.2728
2837.4	73.156
2836.75	65.4452
2836.1	57.7368
2835.45	42.3337
2834.81	42.3271
2834.16	76.9465
2833.51	61.5476
2832.86	57.6919
2832.21	53.8374
2831.56	42.2942
2830.9	42.2877
2830.25	69.1872
2829.6	53.8039
2828.95	53.7956
2828.3	76.8389
2827.65	46.0961
2827	53.7705
2826.35	34.5614
2825.7	72.9515
2825.05	72.9402
2824.4	46.0603
2823.74	57.5664
2823.09	7.67433
2822.44	84.4045
2821.79	69.0475
2821.14	61.366
2820.49	11.5043
2819.83	57.5127
2819.18	19.1679
2818.53	42.1629
2817.88	42.1563
2817.23	57.4769
2816.57	45.9744
2815.92	65.1202
2815.27	45.9601
2814.61	34.4647
2813.96	42.1169
2813.31	61.2514
2812.66	38.2762
2812	45.9243
2811.35	26.785
2810.7	38.2583
2810.04	61.2038
2809.39	53.545
2808.73	42.0645
2808.08	30.5876
2807.43	34.4057
2806.77	68.8006
2806.12	45.8599
2805.46	42.0317
2804.81	45.8457
2804.15	22.9193
2803.5	49.6506
2802.85	48.0086
2802.19	46.3664
2801.54	44.7238
2800.88	43.081
2800.23	41.438
2799.57	39.7947
2798.92	38.1512
2798.26	26.7016
2797.6	38.1393
2796.95	49.5733
2796.29	19.0637
2795.64	34.3093
2794.98	53.3617
2794.33	72.4081
2793.67	34.2932
2793.01	49.5269
2792.36	30.4734
2791.7	22.8515
2791.04	53.3118
2790.39	57.1108
2789.73	30.4544
2789.07	30.4496
2788.42	57.0841
2787.76	26.6351
2787.1	15.2177
2786.45	22.823
2785.79	7.60646
2785.13	45.6317
2784.47	19.0102
2783.82	45.6174
2783.16	22.8052
2782.5	45.6032
2781.84	53.1954
2781.18	53.1871
2780.53	34.1864
2779.87	30.3831
2779.21	60.7568
2778.55	37.9671
2777.89	15.1845
2777.23	22.7731
2776.57	41.7442
2775.92	18.9717
2775.26	56.9062
2774.6	56.8973
2773.94	45.5107
2773.28	53.0875
2772.62	22.7482
2771.96	45.4894
2771.3	45.4823
2770.64	22.7376
2769.98	30.312
2769.32	41.6725
2768.66	41.666
2768	45.4468
2767.34	56.7996
2766.68	60.5767
2766.02	64.3527
2765.36	30.2789
2764.7	30.2742
2764.04	30.2694
2763.38	22.6985
2762.72	83.2149
2762.06	60.5105
2761.39	26.4692
2760.73	37.8072
2760.07	45.3616
2759.41	45.3545
2758.75	37.7895
2758.09	56.6754
2757.43	37.7777
2756.76	41.5489
2756.1	49.0956
2755.44	71.7439
2754.78	18.877
2754.12	33.9733
2753.45	56.6133
2752.79	41.51
2752.13	33.9574
2751.46	45.2694
2750.8	26.403
2750.14	30.1702
2749.48	71.6429
2748.81	64.0915
2748.15	37.695
2747.49	30.1513
2746.82	56.5248
2746.16	30.1418
2745.5	45.2057
2744.83	45.1986
2744.17	37.6596
2743.5	64.0113
2742.84	26.3535
2742.18	37.6419
2741.51	52.6905
2740.85	33.8671
2740.18	52.6739
2739.52	18.8092
2738.85	60.1799
2738.19	48.8885
2737.52	41.3608
2736.86	26.3164
2736.19	48.8656
2735.53	48.8579
2734.86	45.0926
2734.2	45.0855
2733.53	22.5392
2732.87	90.1427
2732.2	90.1286
2731.54	60.0763
2730.87	67.5753
2730.2	41.2895
2729.54	45.036
2728.87	56.2862
2728.2	48.7738
2727.54	86.2785
2726.87	33.7559
2726.21	48.7508
2725.54	44.9937
2724.87	86.2244
2724.2	86.2109
2723.54	44.9725
2722.87	67.4482
2722.2	56.198
2721.54	63.6811
2720.87	59.9258
2720.2	41.1925
2719.53	52.4186
2718.87	52.4104
2718.2	59.8882
2717.53	52.3939
2716.86	37.4184
2716.19	37.4125
2715.52	52.3693
2714.86	52.3611
2714.19	33.6554
2713.52	63.5613
2712.85	41.1215
2712.18	71.0168
2711.51	59.7943
2710.84	29.8924
2710.17	29.8877
2709.5	41.0892
2708.84	22.4088
2708.17	44.8105
2707.5	44.8035
2706.83	44.7964
2706.16	26.1272
2705.49	67.1736
2704.82	63.4317
2704.15	29.8455
2703.48	48.4914
2702.81	63.4018
2702.14	63.3919
2701.47	22.3701
2700.79	33.5499
2700.12	22.3631
2699.45	67.0787
2698.78	40.9861
2698.11	48.4305
2697.44	29.7987
2696.77	52.1395
2696.1	37.2366
2695.43	44.677
2694.75	22.335
2694.08	48.3848
2693.41	52.0985
2692.74	52.0903
2692.07	52.0822
2691.39	48.3544
2690.72	14.8759
2690.05	33.4656
2689.38	37.1782
2688.71	44.6068
2688.03	37.1665
2687.36	52.0249
2686.69	78.025
2686.01	52.0085
2685.34	40.8574
2684.67	7.42745
2683.99	48.2708
2683.32	37.1256
2682.65	33.4077
2681.97	25.9797
2681.3	29.6864
2680.63	51.9431
2679.95	40.806
2679.28	63.0539
2678.6	40.7932
2677.93	48.2025
2677.26	48.1949
2676.58	25.947
2675.91	63.0043
2675.23	59.2888
2674.56	25.9348
2673.88	33.3395
2673.21	48.1494
2672.53	33.329
2671.86	40.729
2671.18	25.9144
2670.51	51.8206
2669.83	29.6071
2669.16	48.1039
2668.48	36.9972
2667.8	66.5845
2667.13	66.574
2666.45	55.4696
2665.78	48.0661
2665.1	70.2393
2664.42	44.3547
2663.75	29.5651
2663.07	51.7308
2662.39	48.0282
2661.72	73.8779
2661.04	25.8532
2660.36	40.62
2659.69	29.5372
2659.01	44.2988
2658.33	66.4377
2657.65	36.904
2656.98	44.2779
2656.3	66.4063
2655.62	70.0845
2654.94	33.1927
2654.26	40.5624
2653.59	25.8084
2652.91	40.5497
2652.23	36.8575
2651.55	11.0555
2650.87	47.8996
2650.19	29.4721
2649.52	29.4674
2648.84	29.4628
2648.16	55.234
2647.48	44.1802
2646.8	47.8543
2646.12	40.4857
2645.44	44.1593
2644.76	47.8317
2644.08	47.8241
2643.4	62.5294
2642.72	25.7433
2642.04	62.5096
2641.36	40.441
2640.68	40.4346
2640	29.4024
2639.32	18.3736
2638.64	40.4155
2637.96	33.062
2637.28	51.4217
2636.6	40.3964
2635.92	40.39
2635.24	33.0411
2634.56	80.7545
2633.88	22.0205
2633.19	40.3645
2632.51	40.3581
2631.83	55.0251
2631.15	33.0098
2630.47	55.0077
2629.79	43.9992
2629.1	32.9942
2628.42	54.9816
2627.74	54.9729
2627.06	43.9714
2626.38	62.283
2625.69	62.2731
2625.01	51.2756
2624.33	43.9436
2623.65	43.9367
2622.96	43.9297
2622.28	36.6023
2621.6	40.2562
2620.91	47.568
2620.23	29.268
2619.55	40.2371
2618.86	29.2587
2618.18	47.5379
2617.5	10.9685
2616.81	80.4233
2616.13	73.1005
2615.44	69.4345
2614.76	40.1926
2614.07	32.8796
2613.39	58.4434
2612.71	40.1735
2612.02	62.0765
2611.34	51.1137
2610.65	43.8048
2609.97	65.6968
2609.28	36.4925
2608.6	18.2433
2607.91	51.0733
2607.23	40.1227
2606.54	29.1755
2605.85	43.7563
2605.17	47.3952
2604.48	43.7425
2603.8	51.0248
2603.11	54.6608
2602.42	32.7913
2601.74	40.0719
2601.05	32.7809
2600.37	50.9844
2599.68	40.0528
2598.99	58.2495
2598.31	65.5203
2597.62	47.3127
2596.93	54.5829
2596.24	58.2126
2595.56	47.2902
2594.87	72.7426
2594.18	47.2752
2593.49	87.2635
2592.81	39.9894
2592.12	43.6179
2591.43	87.222
2590.74	43.6041
2590.06	39.9641
2589.37	47.2228
2588.68	32.6875
2587.99	39.9451
2587.3	43.5696
2586.61	29.0418
2585.92	61.704
2585.24	58.0651
2584.55	58.0559
2583.86	72.5584
2583.17	32.6461
2582.48	36.2677
2581.79	61.6453
2581.1	76.138
2580.41	65.2508
2579.72	57.9915
2579.03	43.4867
2578.34	43.4798
2577.65	50.7184
2576.96	43.466
2576.27	28.9728
2575.58	18.1051
2574.89	61.5476
2574.2	47.0583
2573.51	47.0509
2572.82	47.0434
2572.13	28.9452
2571.43	32.5582
2570.74	43.404
2570.05	54.2464
2569.36	39.7744
2568.67	39.7681
2567.98	21.6882
2567.29	28.913
2566.59	32.522
2565.9	57.8077
2565.21	28.8993
2564.52	28.8947
2563.83	39.7239
2563.13	43.3282
2562.44	32.491
2561.75	39.7049
2561.06	18.0448
2560.36	36.0839
2559.67	25.2547
2558.98	36.0725
2558.28	21.64
2557.59	32.4549
2556.9	43.2663
2556.2	57.6793
2555.51	54.0657
2554.82	72.0762
2554.12	50.4453
2553.43	50.4373
2552.73	14.4084
2552.04	36.0152
2551.35	46.8123
2550.65	50.4052
2549.96	43.1976
2549.26	61.1869
2548.57	25.1906
2547.87	46.7751
2547.18	43.1701
2546.48	64.7449
2545.79	28.7709
2545.09	50.3411
2544.4	61.1188
2543.7	68.2984
2543.01	39.5349
2542.31	61.0896
2541.61	68.2658
2540.92	35.9237
2540.22	21.5508
2539.53	57.4596
2538.83	50.2691
2538.13	61.0313
2537.44	21.537
2536.74	50.2451
2536.04	25.1186
2535.35	25.1146
2534.65	68.1572
2533.95	53.7998
2533.26	28.6886
2532.56	50.1971
2531.86	39.4343
2531.16	78.8561
2530.47	39.4218
2529.77	60.9149
2529.07	35.8266
2528.37	42.985
2527.68	14.3261
2526.98	64.457
2526.28	57.286
2525.58	39.3778
2524.88	42.9508
2524.18	57.2586
2523.48	35.7809
2522.79	64.3954
2522.09	42.9234
2521.39	32.1875
2520.69	39.3339
2519.99	46.4782
2519.29	42.8961
2518.59	57.1857
2517.89	53.603
2517.19	50.0215
2516.49	75.0203
2515.79	39.2901
2515.09	49.9976
2514.39	46.4189
2513.69	32.1311
2512.99	21.4173
2512.29	46.3967
2511.59	53.5261
2510.89	74.9247
2510.19	53.5091
2509.49	42.8004
2508.79	57.0581
2508.09	42.7868
2507.38	46.345
2506.68	32.0798
2505.98	60.5856
2505.28	7.12658
2504.58	24.9391
2503.88	35.6215
2503.17	39.1774
2502.47	49.8542
2501.77	39.1649
2501.07	49.8383
2500.36	64.0676
2499.66	21.3525
2498.96	42.6981
2498.26	60.4793
2497.55	49.7986
2496.85	42.6777
2496.15	21.3354
2495.45	42.664
2494.74	31.9929
2494.04	39.0962
2493.33	39.09
2492.63	63.9552
2491.93	28.42
2491.22	46.1751
2490.52	67.4759
2489.82	42.6095
2489.11	39.0525
2488.41	53.2449
2487.7	42.5891
2487	24.8397
2486.29	24.8357
2485.59	21.2844
2484.88	49.6556
2484.18	28.3701
2483.47	49.6397
2482.77	31.9061
2482.06	63.8021
2481.36	70.8798
2480.65	49.608
2479.95	28.3429
2479.24	49.5921
2478.54	63.7511
2477.83	24.7881
2477.12	42.4871
2476.42	28.3202
2475.71	60.1708
2475	46.0056
2474.3	17.6916
2473.59	74.293
2472.88	53.058
2472.18	60.1227
2471.47	38.8967
2470.76	49.497
2470.06	53.024
2469.35	38.8781
2468.64	45.9394
2467.93	24.7327
2467.23	38.8594
2466.52	56.5137
2465.81	45.91
2465.1	45.9027
2464.39	84.7299
2463.69	45.888
2462.98	45.8807
2462.27	63.5169
2461.56	42.3378
2460.85	74.0793
2460.14	42.3243
2459.43	52.8968
2458.73	42.3107
2458.02	35.2533
2457.31	66.9705
2456.6	52.863
2455.89	24.6654
2455.18	52.846
2454.47	52.8376
2453.76	63.3949
2453.05	38.7351
2452.34	56.333
2451.63	66.8847
2450.92	84.4724
2450.21	63.3442
2449.5	42.2227
2448.79	56.2879
2448.08	52.7614
2447.36	56.2698
2446.65	52.7445
2445.94	42.1888
2445.23	52.7276
2444.52	52.7191
2443.81	70.2809
2443.1	73.7831
2442.39	59.7196
2441.67	49.173
2440.96	42.1415
2440.25	31.6011
2439.54	14.0427
2438.83	21.0606
2438.11	59.6622
2437.4	38.5988
2436.69	24.5589
2435.98	73.6649
2435.26	52.6093
2434.55	59.6143
2433.84	59.6048
2433.12	38.5616
2432.41	42.0605
2431.7	38.5492
2430.98	45.5509
2430.27	42.0402
2429.56	31.5251
2428.84	52.5334
2428.13	63.03
2427.41	42.0132
2426.7	63.0097
2425.99	41.9997
2425.27	41.993
2424.56	66.4782
2423.84	41.9795
2423.13	24.4841
2422.41	55.9547
2421.7	45.4559
2420.98	38.4565
2420.27	48.9368
2419.55	41.9391
2418.84	27.9549
2418.12	45.4194
2417.41	48.9053
2416.69	38.4194
2415.97	52.3817
2415.26	45.3902
2414.54	27.9279
2413.83	34.9043
2413.11	27.919
2412.39	48.8503
2411.68	69.775
2410.96	34.8819
2410.24	45.3392
2409.53	55.7931
2408.81	38.3516
2408.09	17.4297
2407.37	41.8246
2406.66	59.242
2405.94	52.264
2405.22	41.8045
2404.5	62.6966
2403.79	55.7213
2403.07	55.7124
2402.35	62.6663
2401.63	41.7708
2400.91	34.8034
2400.19	52.1968
2399.48	27.8338
2398.76	62.616
2398.04	41.7372
2397.32	66.0733
2396.6	69.5397
2395.88	76.4814
2395.16	66.0414
2394.44	62.5555
2393.72	41.697
2393	27.7935
2392.28	38.2099
2391.56	90.2998
2390.84	41.6701
2390.12	72.911
2389.4	45.1281
2388.68	55.5333
2387.96	55.5244
2387.24	41.6366
2386.52	72.8523
2385.8	17.343
2385.08	52.0206
2384.36	31.2073
2383.64	55.4707
2382.92	41.5964
2382.2	65.8503
2381.48	51.9787
2380.75	20.7881
2380.03	55.4261
2379.31	24.245
2378.59	62.3342
2377.87	72.7115
2377.14	48.4666
2376.42	62.3041
2375.7	65.7548
2374.98	51.9033
2374.25	69.1933
2373.53	62.2639
2372.81	44.9611
2372.09	62.2439
2371.36	72.6061
2370.64	76.0513
2369.92	62.2137
2369.19	58.7479
2368.47	65.6489
2367.75	48.3651
2367.02	24.1786
2366.3	82.8848
2365.57	58.7006
2364.85	65.5959
2364.13	31.0668
2363.4	27.6104
2362.68	37.9582
2361.95	41.4023
2361.23	72.4423
2360.5	27.5926
2359.78	55.1763
2359.05	51.7195
2358.33	65.5007
2357.6	68.937
2356.88	41.3555
2356.15	58.5775
2355.43	68.9036
2354.7	51.6694
2353.97	44.7729
2353.25	44.7657
2352.52	24.1007
2351.8	75.7328
2351.07	51.6277
2350.34	72.2671
2349.62	58.4925
2348.89	48.1625
2348.16	55.0339
2347.44	61.9032
2346.71	41.2621
2345.98	13.7518
2345.25	41.2488
2344.53	72.1737
2343.8	58.4169
2343.07	58.4075
2342.34	65.2684
2341.62	89.3002
2340.89	65.2473
2340.16	44.6357
2339.43	44.6284
2338.7	58.3508
2337.97	72.0688
2337.25	37.7442
2336.52	51.4611
2335.79	13.7207
2335.06	44.5852
2334.33	58.2942
2333.6	65.1419
2332.87	78.8432
2332.14	41.1289
2331.41	41.1223
2330.68	61.6734
2329.95	61.6634
2329.22	34.2519
2328.49	68.4928
2327.76	71.9058
2327.03	61.6235
2326.3	68.4595
2325.57	61.6036
2324.84	47.9062
2324.11	61.5837
2323.38	68.4152
2322.65	54.7233
2321.92	78.652
2321.19	68.382
2320.46	68.3709
2319.72	47.8519
2318.99	44.4267
2318.26	37.5857
2317.53	61.494
2316.8	34.1578
2316.07	54.6436
2315.33	47.8054
2314.6	58.04
2313.87	75.0985
2313.14	40.9562
2312.4	71.6617
2311.67	81.8858
2310.94	37.5249
2310.2	57.9836
2309.47	92.0767
2308.74	54.5551
2308.01	88.6378
2307.27	71.5804
2306.54	40.8965
2305.8	68.1497
2305.07	40.8832
2304.34	61.3149
2303.6	61.3049
2302.87	40.8633
2302.13	47.6662
2301.4	74.8918
2300.67	47.6507
2299.93	27.2246
2299.2	47.6352
2298.46	47.6275
2297.73	54.4226
2296.99	47.6121
2296.26	68.0062
2295.52	50.9964
2294.79	71.3834
2294.05	40.7839
2293.31	44.1754
2292.58	54.3609
2291.84	64.543
2291.11	67.929
2290.37	54.3344
2289.63	81.4884
2288.9	30.5532
2288.16	61.0964
2287.42	50.9054
2286.69	40.7177
2285.95	47.4963
2285.21	67.8409
2284.48	57.6554
2283.74	33.9094
2283	67.8078
2282.26	77.9663
2281.53	61.0072
2280.79	50.8311
2280.05	33.8819
2279.31	54.2022
2278.57	71.1289
2277.84	57.5711
2277.1	64.3338
2276.36	47.3961
2275.62	47.3884
2274.88	47.3807
2274.14	54.1406
2273.4	50.7486
2272.67	67.6538
2271.93	84.5535
2271.19	60.8686
2270.45	47.3345
2269.71	50.7073
2268.97	47.3192
2268.23	47.3115
2267.49	57.4403
2266.75	64.1875
2266.01	84.4436
2265.27	60.7895
2264.53	43.8964
2263.79	50.6414
2263.05	60.7598
2262.31	50.625
2261.57	40.4934
2260.82	23.6173
2260.08	67.467
2259.34	43.8464
2258.6	53.956
2257.86	43.8322
2257.12	74.1654
2256.38	50.5591
2255.63	67.4012
2254.89	70.7597
2254.15	64.0103
2253.41	63.9998
2252.67	60.6216
2251.92	60.6117
2251.18	67.3354
2250.44	90.888
2249.7	67.3134
2248.95	67.3025
2248.21	33.6458
2247.47	47.0964
2246.72	60.5427
2245.98	67.2587
2245.24	70.6101
2244.49	80.6841
2243.75	30.2516
2243	77.2971
2242.26	53.7631
2241.52	53.7544
2240.77	47.0274
2240.03	67.1711
2239.28	80.5921
2238.54	60.4343
2237.79	70.4951
2237.05	30.2073
2236.3	70.4722
2235.56	73.8159
2234.81	73.8039
2234.07	77.1461
2233.32	60.3653
2232.58	57.0024
2231.83	63.6982
2231.09	56.9838
2230.34	30.163
2229.59	53.6143
2228.85	43.5546
2228.1	73.6957
2227.35	66.9852
2226.61	46.882
2225.86	80.356
2225.11	50.2143
2224.37	50.2061
2223.62	46.8514
2222.87	60.2277
2222.13	70.2541
2221.38	97.0018
2220.63	56.8538
2219.88	50.157
2219.14	63.5218
2218.39	70.1968
2217.64	43.4481
2216.89	80.1988
2216.14	56.7982
2215.4	66.8105
2214.65	86.8394
2213.9	80.1464
2213.15	66.7778
2212.4	90.1353
2211.65	56.7426
2210.9	76.7568
2210.15	60.0607
2209.4	83.4041
2208.65	53.3699
2207.9	43.3559
2207.16	50.0179
2206.41	63.3457
2205.66	66.6688
2204.91	86.6552
2204.15	43.3205
2203.4	36.6499
2202.65	66.6252
2201.9	46.63
2201.15	76.594
2200.4	66.5926
2199.65	49.9362
2198.9	66.5708
2198.15	69.8879
2197.4	73.2039
2196.65	63.2112
2195.89	69.8536
2195.14	73.168
2194.39	59.855
2193.64	66.4946
2192.89	63.1596
2192.13	83.0911
2191.38	66.462
2190.63	86.3865
2189.88	43.1862
2189.12	63.1079
2188.37	86.3441
2187.62	69.7281
2186.87	49.7976
2186.11	43.1509
2185.36	73.0126
2184.61	66.3642
2183.85	79.624
2183.1	69.6596
2182.35	59.6985
2181.59	79.5849
2180.84	49.7324
2180.08	69.614
2179.33	79.5459
2178.57	72.9051
2177.82	69.5798
2177.07	59.6301
2176.31	79.4938
2175.56	59.6106
2174.8	49.6673
2174.05	62.9017
2173.29	62.8914
2172.53	52.9525
2171.78	79.4157
2171.02	62.8604
2170.27	59.5422
2169.51	79.3767
2168.76	59.5227
2168	79.3506
2167.24	69.4204
2166.49	69.4091
2165.73	59.4837
2164.97	66.0822
2164.22	75.9821
2163.46	72.6666
2162.7	56.1423
2161.95	62.7369
2161.19	89.1379
2160.43	85.8224
2159.67	66.0064
2158.92	92.3938
2158.16	72.5832
2157.4	79.1687
2156.64	69.2613
2155.88	69.2499
2155.13	65.9415
2154.37	75.8203
2153.61	69.2158
2152.85	79.0908
2152.09	82.3728
2151.33	59.2987
2150.57	65.8766
2149.82	32.9329
2149.06	59.2695
2148.3	49.3831
2147.54	69.125
2146.78	59.2403
2146.02	49.3588
2145.26	69.091
2144.5	42.7636
2143.74	69.0683
2142.98	75.6338
2142.22	75.6214
2141.46	39.4482
2140.7	95.3174
2139.94	42.7215
2139.17	72.286
2138.41	72.2742
2137.65	52.5544
2136.89	105.092
2136.13	78.8057
2135.37	52.5285
2134.61	82.0623
2133.84	52.5112
2133.08	62.3468
2132.32	72.1792
2131.56	49.205
2130.8	52.4767
2130.03	72.1436
2129.27	98.3615
2128.51	65.5636
2127.75	45.887
2126.98	72.0962
2126.22	68.8078
2125.46	45.8643
2124.69	78.6116
2123.93	75.3238
2123.17	75.3114
2122.4	65.4774
2121.64	88.3799
2120.88	68.7286
2120.11	68.7173
2119.35	85.0646
2118.58	68.6947
2117.82	58.8715
2117.05	68.6721
2116.29	75.2
2115.53	62.1115
2114.76	26.1479
2114	75.1628
2113.23	45.7438
2112.47	39.2025
2111.7	55.5277
2110.93	55.5186
2110.17	84.8968
2109.4	94.677
2108.64	78.3405
2107.87	71.8003
2107.1	55.4729
2106.34	71.7766
2105.57	71.7648
2104.81	65.23
2104.04	68.4802
2103.27	71.7294
2102.51	58.678
2101.74	58.6683
2100.97	91.2468
2100.2	52.1325
2099.44	74.9281
2098.67	78.1729
2097.9	107.47
2097.13	78.1472
2096.37	94.4123
2095.6	107.417
2094.83	74.854
2094.06	65.0797
2093.29	58.5621
2092.52	61.8053
2091.76	52.038
2090.99	74.7923
2090.22	81.2826
2089.45	58.5138
2088.68	74.7553
2087.91	64.9939
2087.14	71.4815
2086.37	97.4587
2085.6	74.706
2084.83	74.6937
2084.06	68.1874
2083.29	58.4367
2082.52	68.1649
2081.75	55.172
2080.98	68.1424
2080.21	74.6198
2079.44	64.8761
2078.67	25.9462
2077.9	51.8838
2077.13	55.1174
2076.36	68.0749
2075.58	74.546
2074.81	84.2554
2074.04	93.9617
2073.27	77.7486
2072.5	55.0628
2071.73	93.9152
2070.95	71.2342
2070.18	64.7477
2069.41	84.1581
2068.64	84.1442
2067.86	74.423
2067.09	87.3517
2066.32	64.6943
2065.55	84.0886
2064.77	80.8411
2064	54.9629
2063.23	67.8841
2062.45	67.8729
2061.68	90.4822
2060.9	77.5434
2060.13	77.5306
2059.36	61.3682
2058.58	67.8168
2057.81	64.5768
2057.03	103.306
2056.26	93.6054
2055.48	80.6809
2054.71	74.2142
2053.93	93.5589
2053.16	74.1897
2052.38	77.4025
2051.61	74.1651
2050.83	70.9288
2050.06	67.6936
2049.28	58.0135
2048.51	77.3385
2047.73	64.4381
2046.95	86.977
2046.18	83.7418
2045.4	99.8295
2044.63	74.0548
2043.85	103.016
2043.07	77.249
2042.3	83.6726
2041.52	83.6587
2040.74	115.816
2039.96	64.3316
2039.19	54.6728
2038.41	90.0344
2037.63	57.8696
2036.85	73.9323
2036.08	89.9896
2035.3	93.1881
2034.52	57.8313
2033.74	77.0957
2032.96	99.5654
2032.19	70.6476
2031.41	105.954
2030.63	86.6752
2029.85	99.4995
2029.07	70.6008
2028.29	70.5891
2027.51	96.242
2026.73	60.9431
2025.95	89.7961
2025.17	109.02
2024.39	86.5604
2023.61	73.7244
2022.83	70.5073
2022.05	86.5173
2021.27	83.2992
2020.49	105.708
2019.71	60.8523
2018.93	102.471
2018.15	70.4372
2017.37	76.8278
2016.59	73.6145
2015.81	70.4022
2015.03	70.3905
2014.24	99.1701
2013.46	76.7642
2012.68	108.731
2011.9	76.7387
2011.12	86.3167
2010.33	76.7132
2009.55	73.5047
2008.77	89.4691
2007.99	95.8438
2007.2	111.799
2006.42	99.0057
2005.64	79.8301
2004.86	111.744
2004.07	124.494
2003.29	67.0239
2002.51	118.07
2001.72	124.432
2000.94	102.081
2000.15	114.822
1999.37	98.8579
1998.59	114.784
1997.8	76.5098
1997.02	82.8718
1996.23	95.6054
1995.45	108.335
1994.66	82.8305
1993.88	127.41
1993.09	124.204
1992.31	98.7103
1991.52	101.878
1990.74	98.6775
1989.95	127.305
1989.17	105.009
1988.38	98.6283
1987.6	117.698
1986.81	133.581
1986.02	79.4993
1985.24	111.28
1984.45	98.5463
1983.66	92.1732
1982.88	117.581
1982.09	127.093
1981.3	120.718
1980.52	133.403
1979.73	98.4481
1978.94	114.308
1978.15	111.114
1977.37	85.7023
1976.58	117.424
1975.79	114.232
1975	114.213
1974.22	111.022
1973.43	126.861
1972.64	107.814
1971.85	139.5
1971.06	91.9282
1970.27	107.76
1969.48	133.093
1968.69	117.229
1967.91	123.545
1967.12	136.194
1966.33	114.004
1965.54	117.151
1964.75	126.629
1963.96	123.442
1963.17	113.928
1962.38	155.043
1961.59	126.544
1960.8	98.0556
1960.01	158.128
1959.22	82.2128
1958.43	151.752
1957.63	116.956
1956.84	94.8135
1956.05	123.237
1955.26	129.535
1954.47	154.785
1953.68	120.017
1952.89	145.26
1952.09	126.292
1951.3	97.8597
1950.51	119.937
1949.72	123.073
1948.93	132.518
1948.13	123.032
1947.34	135.628
1946.55	138.759
1945.76	132.429
1944.96	141.865
1944.17	122.929
1943.38	122.909
1942.58	132.341
1941.79	119.717
1941	129.147
1940.2	125.976
1939.41	132.253
1938.61	85.0055
1937.82	141.652
1937.02	141.629
1936.23	144.752
1935.44	144.728
1934.64	97.5175
1933.85	141.534
1933.05	97.485
1932.26	138.343
1931.46	125.745
1930.67	147.726
1929.87	138.273
1929.07	138.25
1928.28	147.652
1927.48	141.345
1926.69	131.9
1925.89	144.438
1925.09	182.087
1924.3	134.973
1923.5	134.95
1922.7	147.479
1921.91	141.18
1921.11	163.114
1920.31	159.951
1919.52	147.381
1918.72	172.438
1917.92	150.466
1917.12	141.039
1916.33	175.485
1915.53	153.524
1914.73	187.957
1913.93	187.926
1913.13	169.105
1912.33	137.766
1911.54	159.657
1910.74	172.15
1909.94	131.438
1909.14	134.545
1908.34	150.165
1907.54	159.523
1906.74	159.497
1905.94	131.328
1905.14	125.054
1904.34	171.92
1903.54	212.52
1902.74	159.363
1901.94	153.088
1901.14	149.939
1900.34	159.283
1899.54	168.625
1898.74	128.008
1897.94	177.933
1897.14	171.661
1896.34	162.271
1895.54	174.724
1894.73	165.336
1893.93	146.594
1893.13	177.755
1892.33	140.309
1891.53	143.403
1890.73	180.782
1889.92	158.937
1889.12	174.49
1888.32	177.576
1887.52	208.695
1886.71	196.202
1885.91	199.283
1885.11	149.437
1884.3	180.54
1883.5	205.408
1882.7	196.038
1881.89	189.783
1881.09	164.866
1880.29	192.829
1879.48	192.797
1878.68	214.529
1877.87	155.429
1877.07	174.052
1876.27	152.27
1875.46	180.207
1874.66	149.112
1873.85	204.995
1873.05	149.062
1872.24	204.926
1871.44	161.43
1870.63	180.026
1869.82	195.513
1869.02	183.069
1868.21	189.243
1867.41	164.396
1866.6	210.888
1865.79	186.047
1864.99	173.614
1864.18	201.483
1863.38	164.258
1862.57	210.711
1861.76	229.265
1860.95	198.25
1860.15	182.731
1859.34	161.024
1858.53	191.958
1857.72	188.83
1856.92	157.848
1856.11	185.672
1855.3	198.017
1854.49	194.89
1853.68	222.694
1852.88	216.472
1852.07	197.884
1851.26	191.668
1850.45	197.818
1849.64	200.875
1848.83	216.29
1848.02	210.075
1847.21	200.774
1846.4	228.535
1845.59	231.584
1844.78	225.371
1843.97	234.593
1843.16	197.519
1842.35	243.771
1841.54	209.793
1840.73	197.419
1839.92	160.376
1839.11	215.855
1838.3	234.317
1837.49	166.46
1836.68	240.402
1835.87	218.791
1835.06	172.539
1834.25	197.154
1833.43	187.881
1832.62	206.326
1831.81	187.817
1831	181.629
1830.19	230.845
1829.37	230.806
1828.56	193.845
1827.75	203.041
1826.94	233.766
1826.12	233.726
1825.31	215.238
1824.5	215.202
1823.68	252.051
1822.87	205.91
1822.06	202.802
1821.24	215.057
1820.43	261.097
1819.61	236.483
1818.8	227.231
1817.99	230.263
1817.17	230.224
1816.36	227.116
1815.54	187.186
1814.73	233.176
1813.91	236.204
1813.1	211.628
1812.28	223.859
1811.47	251.415
1810.65	205.39
1809.84	217.615
1809.02	183.869
1808.2	196.094
1807.39	238.95
1806.57	245.035
1805.75	241.931
1804.94	248.014
1804.12	241.85
1803.3	232.626
1802.49	223.406
1801.67	226.428
1800.85	241.687
1800.04	220.234
1799.22	217.139
1798.4	247.68
1797.58	220.123
1796.77	207.859
1795.95	210.88
1795.13	250.569
1794.31	219.974
1793.49	250.484
1792.67	226.009
1791.86	250.4
1791.04	250.357
1790.22	256.42
1789.4	274.69
1788.58	241.076
1787.76	253.239
1786.94	265.399
1786.12	237.904
1785.3	265.309
1784.48	250.019
1783.66	237.783
1782.84	237.743
1782.02	240.75
1781.2	268.132
1780.38	280.273
1779.56	255.858
1778.74	258.86
1777.92	228.368
1777.1	197.885
1776.27	225.247
1775.45	243.469
1774.63	234.299
1773.81	240.344
1772.99	267.68
1772.17	255.469
1771.34	267.589
1770.52	264.504
1769.7	246.22
1768.88	249.218
1768.05	249.176
1767.23	273.44
1766.41	312.883
1765.58	227.789
1764.76	258.118
1763.94	264.146
1763.11	294.458
1762.29	288.338
1761.47	245.804
1760.64	251.831
1759.82	251.788
1758.99	242.647
1758.17	218.345
1757.35	251.661
1756.52	260.713
1755.7	257.638
1754.87	260.624
1754.05	263.61
1753.22	254.477
1752.4	242.318
1751.57	284.676
1750.74	242.236
1749.92	278.525
1749.09	248.208
1748.27	290.536
1747.44	260.228
1746.61	287.412
1745.79	287.363
1744.96	299.412
1744.13	266.099
1743.31	260.007
1742.48	290.192
1741.65	296.187
1740.83	259.875
1740	308.172
1739.17	268.85
1738.34	274.845
1737.51	286.877
1736.69	298.905
1735.86	271.686
1735.03	295.786
1734.2	250.47
1733.37	262.496
1732.54	277.535
1731.72	289.553
1730.89	280.457
1730.06	286.44
1729.23	295.435
1728.4	301.413
1727.57	247.117
1726.74	328.429
1725.91	274.146
1725.08	246.991
1724.25	310.192
1723.42	286.051
1722.59	252.887
1721.76	282.944
1720.93	319.01
1720.1	267.803
1719.27	300.851
1718.43	282.752
1717.6	288.719
1716.77	288.67
1715.94	297.64
1715.11	309.614
1714.28	297.539
1713.45	303.499
1712.61	309.456
1711.78	279.364
1710.95	339.385
1710.12	303.293
1709.28	309.246
1708.45	288.18
1707.62	267.122
1706.78	303.087
1705.95	306.035
1705.12	269.985
1704.28	299.933
1703.45	278.89
1702.62	317.821
1701.78	278.795
1700.95	278.748
1700.11	275.704
1699.28	314.609
1698.45	323.542
1697.61	305.516
1696.78	302.469
1695.94	344.337
1695.11	323.322
1694.27	317.281
1693.44	320.22
1692.6	323.157
1691.76	323.103
1690.93	320.056
1690.09	322.993
1689.26	352.839
1688.42	319.893
1687.58	298.915
1686.75	334.727
1685.91	358.576
1685.07	310.713
1684.24	307.673
1683.4	343.459
1682.56	322.498
1681.73	286.616
1680.89	298.508
1680.05	313.38
1679.21	334.215
1678.37	295.372
1677.54	343.05
1676.7	340.009
1675.86	322.059
1675.02	307.097
1674.18	321.95
1673.34	375.544
1672.51	321.84
1671.67	351.58
1670.83	348.541
1669.99	306.783
1669.15	330.555
1668.31	303.701
1667.47	345.327
1666.63	345.268
1665.79	336.281
1664.95	389.782
1664.11	374.841
1663.27	368.828
1662.43	380.661
1661.59	344.915
1660.75	344.856
1659.9	356.687
1659.06	356.626
1658.22	380.336
1657.38	341.65
1656.54	380.207
1655.7	362.323
1654.85	397.893
1654.01	353.293
1653.17	347.296
1652.33	341.301
1651.49	344.21
1650.64	350.085
1649.8	358.924
1648.96	376.658
1648.11	397.35
1647.27	332.057
1646.43	388.322
1645.58	373.437
1644.74	317.071
1643.9	349.607
1643.05	402.868
1642.21	385.029
1641.36	337.583
1640.52	420.426
1639.68	352.269
1638.83	372.927
1637.99	322.556
1637.14	325.46
1636.3	352.028
1635.45	363.799
1634.61	381.48
1633.76	360.718
1632.91	357.7
1632.07	384.241
1631.22	354.623
1630.38	313.197
1629.53	392.906
1628.68	360.349
1627.84	351.427
1626.99	383.847
1626.14	377.877
1625.3	357.151
1624.45	365.943
1623.6	386.535
1622.75	342.217
1621.91	333.309
1621.06	342.1
1620.21	389.219
1619.36	395.049
1618.52	330.134
1617.67	359.548
1616.82	353.594
1615.97	324.072
1615.12	353.473
1614.27	335.742
1613.42	359.241
1612.57	335.627
1611.72	365.005
1610.88	356.114
1610.03	385.478
1609.18	355.992
1608.33	361.814
1607.48	397.045
1606.63	355.809
1605.78	376.328
1604.93	340.989
1604.07	364.443
1603.22	367.319
1602.37	370.195
1601.52	317.255
1600.67	375.942
1599.82	358.258
1598.97	375.813
1598.12	387.491
1597.26	316.984
1596.41	355.078
1595.56	328.611
1594.71	366.691
1593.86	319.7
1593	357.767
1592.15	348.91
1591.3	363.508
1590.45	354.653
1589.59	360.453
1588.74	348.671
1587.89	398.413
1587.03	377.841
1586.18	380.705
1585.32	389.424
1584.47	357.155
1583.62	380.509
1582.76	316.061
1581.91	386.231
1581.05	394.941
1580.2	380.248
1579.34	377.259
1578.49	362.574
1577.63	374.206
1576.78	374.142
1575.92	341.93
1575.07	333.105
1574.21	409.007
1573.36	365.122
1572.5	347.536
1571.64	362.077
1570.79	402.887
1569.93	367.79
1569.07	382.319
1568.22	396.844
1567.36	335.509
1566.5	344.202
1565.65	379.14
1564.79	379.075
1563.93	402.334
1563.07	393.52
1562.22	381.794
1561.36	384.643
1560.5	375.836
1559.64	337.903
1558.78	372.795
1557.92	390.202
1557.07	427.984
1556.21	369.692
1555.35	413.285
1554.49	407.394
1553.63	357.863
1552.77	392.709
1551.91	375.191
1551.05	325.691
1550.19	398.322
1549.33	392.439
1548.47	395.278
1547.61	415.552
1546.75	377.709
1545.89	412.504
1545.03	386.293
1544.17	400.746
1543.31	391.967
1542.45	374.482
1541.58	409.247
1540.72	438.196
1539.86	414.909
1539	420.639
1538.14	426.368
1537.28	403.095
1536.41	414.623
1535.55	379.764
1534.69	417.379
1533.83	408.613
1532.96	396.953
1532.1	391.091
1531.24	466.332
1530.37	457.563
1529.51	387.993
1528.65	390.822
1527.78	428.382
1526.92	396.475
1526.05	419.554
1525.19	436.84
1524.33	413.625
1523.46	404.878
1522.6	416.374
1521.73	396.065
1520.87	361.311
1520	410.379
1519.14	439.203
1518.27	418.904
1517.41	450.605
1516.54	412.984
1515.67	444.675
1514.81	389.745
1513.94	432.976
1513.08	406.927
1512.21	421.284
1511.34	429.867
1510.48	395.178
1509.61	441.255
1508.74	409.46
1507.88	418.038
1507.01	400.671
1506.14	443.832
1505.27	469.689
1504.41	397.583
1503.54	420.558
1502.67	420.486
1501.8	429.052
1500.93	443.373
1500.06	457.689
1499.2	414.439
1498.33	428.756
1497.46	466.083
1496.59	434.361
1495.72	414.153
1494.85	414.082
1493.98	408.26
1493.11	416.813
1492.24	451.23
1491.37	405.175
1490.5	448.201
1489.63	442.379
1488.76	442.302
1487.89	430.739
1487.02	419.181
1486.15	427.72
1485.28	401.815
1484.41	441.92
1483.54	456.189
1482.66	430.293
1481.79	433.087
1480.92	490.365
1480.05	473.077
1479.18	507.395
1478.3	484.378
1477.43	481.429
1476.56	489.941
1475.69	461.21
1474.81	524.141
1473.94	495.414
1473.07	455.244
1472.19	458.028
1471.32	506.606
1470.45	512.241
1469.57	523.598
1468.7	486.318
1467.83	557.739
1466.95	554.783
1466.08	540.39
1465.2	594.613
1464.33	554.495
1463.45	560.114
1462.58	600.018
1461.7	559.92
1460.83	616.948
1459.95	574.005
1459.08	585.327
1458.2	593.79
1457.32	599.395
1456.45	610.707
1455.57	570.655
1454.7	619.053
1453.82	576.162
1452.94	633.098
1452.07	573.111
1451.19	584.415
1450.31	604.266
1449.43	558.564
1448.56	564.166
1447.68	603.952
1446.8	589.605
1445.92	646.46
1445.05	595.096
1444.17	629.155
1443.29	637.585
1442.41	714.313
1441.53	734.106
1440.65	688.461
1439.77	682.653
1438.9	710.973
1438.02	693.79
1437.14	676.612
1436.26	713.446
1435.38	690.587
1434.5	596.7
1433.62	568.187
1432.74	565.248
1431.86	599.229
1430.98	553.694
1430.1	553.598
1429.22	539.31
1428.33	527.864
1427.45	561.822
1426.57	550.377
1425.69	553.118
1424.81	547.35
1423.93	524.571
1423.05	598.19
1422.16	623.597
1421.28	490.289
1420.4	515.706
1419.52	509.95
1418.63	521.192
1417.75	538.094
1416.87	512.516
1415.99	549.231
1415.1	566.119
1414.22	506.589
1413.34	529.137
1412.45	497.925
1411.57	531.782
1410.68	526.034
1409.8	528.77
1408.92	517.369
1408.03	514.453
1407.15	542.625
1406.26	542.531
1405.38	525.485
1404.49	497.147
1403.61	454.697
1402.72	499.798
1401.84	463.009
1400.95	462.928
1400.06	474.137
1399.18	468.411
1398.29	493.721
1397.41	479.531
1396.52	482.268
1395.63	482.184
1394.75	468.003
1393.86	544.03
1392.97	512.934
1392.09	501.573
1391.2	529.659
1390.31	515.483
1389.42	473.148
1388.54	549.094
1387.65	501.137
1386.76	540.458
1385.87	512.22
1384.98	548.711
1384.09	509.228
1383.21	497.888
1382.32	584.986
1381.43	461.159
1380.54	500.439
1379.65	534.083
1378.76	564.906
1377.87	477.698
1376.98	587.185
1376.09	505.621
1375.2	553.278
1374.31	536.333
1373.42	547.47
1372.53	586.673
1371.64	578.151
1370.75	558.408
1369.86	552.699
1368.96	569.434
1368.07	555.311
1367.18	602.884
1366.29	580.35
1365.4	597.068
1364.51	554.924
1363.61	543.619
1362.72	577.144
1361.83	557.435
1360.94	518.128
1360.04	593.643
1359.15	562.743
1358.26	573.841
1357.36	587.735
1356.47	579.238
1355.58	573.541
1354.68	595.819
1353.79	550.967
1352.9	634.759
1352	567.549
1351.11	559.064
1350.21	558.966
1349.32	542.103
1348.42	561.565
1347.53	558.674
1346.63	597.676
1345.74	586.403
1344.84	561.173
1343.95	594.572
1343.05	591.677
1342.15	588.783
1341.26	560.781
1340.36	541.157
1339.47	571.741
1338.57	580.006
1337.67	546.449
1336.78	599.316
1335.88	554.619
1334.98	576.815
1334.08	548.853
1333.19	562.685
1332.29	543.091
1331.39	540.212
1330.49	551.254
1329.6	567.859
1328.7	592.808
1327.8	542.616
1326.9	606.511
1326	586.933
1325.1	553.456
1324.2	600.632
1323.3	597.746
1322.4	517.03
1321.51	572.524
1320.61	594.654
1319.71	602.885
1318.81	511.112
1317.91	572.123
1317.01	580.354
1316.1	563.594
1315.2	596.805
1314.3	552.295
1313.4	568.848
1312.5	554.876
1311.6	629.674
1310.7	599.057
1309.8	529.629
1308.9	560.033
1307.99	540.531
1307.09	631.895
1306.19	595.761
1305.29	565.181
1304.38	631.563
1303.48	650.839
1302.58	584.268
1301.68	664.453
1300.77	653.265
1299.87	647.615
1298.97	744.35
1298.06	735.92
1297.16	807.71
1296.25	708.005
1295.35	663.638
1294.45	671.816
1293.54	644.056
1292.64	616.306
1291.73	574.75
1290.83	555.31
1289.92	602.171
1289.02	563.401
1288.11	527.405
1287.21	563.203
1286.3	587.947
1285.39	529.887
1284.49	532.554
1283.58	524.184
1282.68	513.058
1281.77	537.789
1280.86	482.547
1279.96	548.628
1279.05	529.237
1278.14	476.781
1277.23	476.697
1276.33	471.103
1275.42	465.511
1274.51	481.954
1273.6	457.087
1272.7	459.76
1271.79	467.937
1270.88	440.334
1269.97	440.257
1269.06	420.922
1268.15	412.596
1267.24	429.024
1266.33	365.706
1265.43	450.867
1264.52	415.054
1263.61	461.701
1262.7	403.918
1261.79	406.594
1260.88	420.256
1259.97	409.197
1259.06	400.888
1258.14	433.761
1257.23	378.788
1256.32	365
1255.41	392.374
1254.5	373.102
1253.59	392.236
1252.68	394.91
1251.77	386.614
1250.85	386.546
1249.94	400.183
1249.03	364.486
1248.12	358.942
1247.2	380.795
1246.29	361.555
1245.38	386.139
1244.47	347.737
1243.55	386.003
1242.64	353.089
1241.73	344.817
1240.81	331.076
1239.9	355.638
1238.98	363.781
1238.07	300.819
1237.16	382.793
1236.24	355.388
1235.33	368.992
1234.41	322.469
1233.5	322.412
1232.58	352.406
1231.67	338.687
1230.75	357.743
1229.84	346.759
1228.92	349.428
1228	300.236
1227.09	341.118
1226.17	330.144
1225.25	332.813
1224.34	365.485
1223.42	384.509
1222.5	313.552
1221.59	299.866
1220.67	335.246
1219.75	332.462
1218.84	307.881
1217.92	332.344
1217	324.115
1216.08	340.397
1215.16	324
1214.25	315.777
1213.33	318.443
1212.41	310.223
1211.49	323.772
1210.57	304.673
1209.65	320.938
1208.73	326.32
1207.81	309.949
1206.89	315.331
1205.97	298.968
1205.05	328.807
1204.13	336.9
1203.21	344.989
1202.29	309.621
1201.37	317.713
1200.45	304.082
1199.53	301.313
1198.61	344.685
1197.69	333.77
1196.77	325.572
1195.84	292.963
1194.92	328.169
1194	252.184
1193.08	314.497
1192.16	303.598
1191.23	317.096
1190.31	314.33
1189.39	281.763
1188.46	335.889
1187.54	306.039
1186.62	308.692
1185.69	341.126
1184.77	335.652
1183.85	324.767
1182.92	294.944
1182	308.419
1181.08	311.07
1180.15	300.197
1179.23	283.92
1178.3	313.608
1177.38	308.147
1176.45	310.795
1175.53	308.038
1174.6	332.298
1173.68	318.733
1172.75	321.378
1171.82	283.518
1170.9	280.768
1169.97	288.816
1169.05	313.054
1168.12	291.412
1167.19	296.756
1166.27	339.861
1165.34	307.439
1164.41	339.74
1163.48	288.459
1162.56	293.798
1161.63	301.831
1160.7	301.778
1159.77	285.56
1158.84	296.284
1157.92	325.854
1156.99	280.024
1156.06	312.279
1155.13	301.457
1154.2	277.184
1153.27	317.494
1152.34	290.536
1151.41	287.795
1150.48	295.811
1149.55	266.183
1148.62	287.642
1147.69	298.342
1146.76	247.231
1145.83	322.417
1144.9	290.124
1143.97	314.246
1143.04	300.763
1142.11	292.655
1141.18	268.443
1140.25	303.287
1139.32	276.398
1138.38	295.13
1137.45	297.76
1136.52	332.574
1135.59	337.878
1134.65	321.732
1133.72	380.648
1132.79	388.621
1131.86	466.263
1130.92	442.067
1129.99	450.025
1129.06	457.98
1128.12	398.987
1127.19	406.948
1126.26	361.37
1125.32	329.19
1124.39	355.89
1123.45	334.424
1122.52	329.015
1121.58	328.956
1120.65	294.136
1119.71	315.472
1118.78	256.609
1117.84	277.944
1116.91	288.583
1115.97	272.502
1115.03	317.863
1114.1	288.429
1113.16	267.017
1112.23	290.996
1111.29	266.922
1110.35	344.268
1109.42	266.827
1108.48	288.122
1107.54	282.736
1106.6	293.353
1105.67	282.635
1104.73	293.249
1103.79	255.88
1102.85	317.129
1101.91	298.421
1100.98	269.064
1100.04	311.632
1099.1	279.62
1098.16	290.221
1097.22	322.115
1096.28	260.84
1095.34	250.149
1094.4	228.819
1093.46	236.759
1092.52	268.633
1091.58	263.267
1090.64	300.443
1089.7	252.54
1088.76	257.811
1087.82	244.478
1086.88	268.346
1085.94	247.047
1085	244.347
1084.06	289.447
1083.11	265.5
1082.17	262.798
1081.23	297.254
1080.29	273.319
1079.35	265.311
1078.4	297.095
1077.46	267.869
1076.52	275.776
1075.57	257.168
1074.63	273.027
1073.69	296.831
1072.74	278.229
1071.8	309.971
1070.86	304.618
1069.91	325.751
1068.97	283.327
1068.02	301.808
1067.08	375.869
1066.14	370.509
1065.19	373.089
1064.25	439.161
1063.3	388.827
1062.36	370.245
1061.41	359.602
1060.46	338.389
1059.52	340.972
1058.57	290.699
1057.63	272.151
1056.68	306.446
1055.73	256.206
1054.79	227.112
1053.84	274.598
1052.89	253.429
1051.95	242.826
1051	226.949
1050.05	258.571
1049.1	232.144
1048.16	258.478
1047.21	224.15
1046.26	224.11
1045.31	245.159
1044.36	224.03
1043.41	245.071
1042.46	216.046
1041.52	231.813
1040.57	226.504
1039.62	223.83
1038.67	226.423
1037.72	250.073
1036.77	226.342
1035.82	218.407
1034.87	231.523
1033.92	226.22
1032.97	202.51
1032.02	249.805
1031.07	218.212
1030.11	210.287
1029.16	210.249
1028.21	204.957
1027.26	220.683
1026.31	210.137
1025.36	210.099
1024.4	204.81
1023.45	225.776
1022.5	183.738
1021.55	207.324
1020.59	215.159
1019.64	191.51
1018.69	207.213
1017.73	209.798
1016.78	167.809
1015.83	230.696
1014.87	186.096
1013.92	235.854
1012.97	196.51
1012.01	191.235
1011.06	225.251
1010.1	191.167
1009.15	188.514
1008.19	198.952
1007.24	256.497
1006.28	222.432
1005.33	196.228
1004.37	193.577
1003.41	206.62
1002.46	196.123
1001.5	196.088
1000.55	211.737
999.589	222.153
998.633	206.435
997.676	182.884
996.719	229.87
995.761	174.983
994.804	216.732
993.846	187.974
992.889	198.382
991.931	219.225
990.973	213.967
990.014	203.493
989.056	206.065
988.097	211.244
987.139	187.738
986.18	239.845
985.221	177.245
984.261	179.819
983.302	190.209
982.342	192.78
981.382	174.513
980.422	166.669
979.462	187.469
978.502	200.452
977.541	182.196
976.581	202.982
975.62	189.936
974.659	215.916
973.698	223.68
972.736	195.035
971.775	176.8
970.813	202.763
969.851	218.321
968.889	200.092
967.927	213.047
966.964	187.032
966.002	197.387
965.039	168.787
964.076	210.297
963.113	205.068
962.15	199.84
961.186	223.158
960.223	215.335
959.259	197.139
958.295	225.631
957.331	178.917
956.367	184.07
955.402	225.51
954.437	204.736
953.473	191.744
952.508	204.663
951.542	168.363
950.577	183.871
949.611	212.32
948.646	209.693
947.68	176.007
946.714	201.854
945.748	186.293
944.781	194.02
943.815	188.812
942.848	217.224
941.881	186.159
940.914	211.976
939.947	214.523
938.979	196.395
938.012	196.36
937.044	219.573
936.076	227.282
935.108	211.747
934.139	188.473
933.171	229.74
932.202	211.633
931.233	209.014
930.264	178.017
929.295	201.2
928.326	193.427
927.356	190.814
926.387	170.154
925.417	198.478
924.447	201.019
923.476	211.29
922.506	198.37
921.535	195.759
920.565	185.422
919.594	221.437
918.623	208.525
917.651	205.913
916.68	205.876
915.708	221.277
914.737	246.962
913.765	241.773
912.792	226.3
911.82	246.828
910.848	236.501
909.875	239.029
908.902	262.113
907.929	192.696
906.956	305.688
905.982	259.403
905.009	259.356
904.035	223.365
903.061	215.624
902.087	218.152
901.113	241.207
900.138	251.425
899.164	228.294
898.189	246.205
897.214	238.468
896.239	276.881
895.263	248.635
894.288	235.776
893.312	263.919
892.336	238.253
891.36	256.14
890.384	271.459
889.408	248.366
888.431	266.241
887.454	238.038
886.478	214.963
885.5	237.952
884.523	225.118
883.546	240.423
882.568	214.807
881.59	245.45
880.612	242.849
879.634	276.031
878.656	242.761
877.677	235.053
876.699	235.01
875.72	245.183
874.741	257.907
873.762	242.542
872.782	237.393
871.803	232.245
870.823	252.617
869.843	239.815
868.863	232.119
867.883	280.533
866.902	252.434
865.922	270.234
864.941	242.147
863.96	239.554
862.979	244.607
861.997	275.133
861.016	267.442
860.034	262.3
859.052	264.799
858.07	236.748
857.088	269.793
856.105	277.379
855.123	272.24
854.14	297.629
853.157	259.424
852.174	315.322
851.191	274.585
850.207	251.657
849.224	282.11
848.24	254.107
847.256	259.142
846.272	276.876
845.287	220.953
844.303	256.462
843.318	269.109
842.333	274.137
841.348	258.86
840.363	261.351
839.377	273.988
838.392	263.793
837.406	230.777
836.42	261.161
835.434	243.368
834.447	250.928
833.461	250.882
832.474	250.837
831.487	250.791
830.5	235.549
829.513	210.183
828.525	220.272
827.538	240.484
826.55	205.007
825.562	235.335
824.574	202.402
823.586	242.838
822.597	247.853
821.609	217.464
820.62	189.614
819.631	227.496
818.641	207.236
817.652	222.359
816.662	207.161
815.673	204.597
814.683	237.391
813.693	224.723
812.702	204.486
811.712	217.069
810.721	217.029
809.73	194.282
808.739	229.564
807.748	211.867
806.757	209.306
805.765	237.003
804.774	204.188
803.782	183.988
802.79	221.754
801.797	211.635
800.805	173.812
799.812	204.003
798.819	239.219
797.826	183.787
796.833	196.34
795.84	234.055
794.846	198.785
793.853	178.622
792.859	208.774
791.865	218.795
790.87	228.813
789.876	211.174
788.881	201.081
787.887	208.584
786.892	193.47
785.896	213.532
784.901	200.935
783.906	183.319
782.91	208.394
781.914	188.273
780.918	173.18
779.922	225.846
778.925	218.278
777.929	195.661
776.932	188.102
775.935	213.143
774.938	260.739
773.94	223.092
772.943	203.002
771.945	212.988
770.947	245.517
769.949	197.881
768.951	205.358
767.952	215.336
766.954	220.304
765.955	197.737
764.956	200.203
763.957	212.677
762.957	232.651
761.958	222.604
760.958	192.555
759.958	220.023
758.958	197.484
757.958	229.94
756.957	222.401
755.957	224.859
754.956	217.324
753.955	252.249
752.954	214.747
751.952	179.756
750.951	204.684
749.949	209.638
748.947	222.076
747.945	184.614
746.943	172.109
745.941	216.967
744.938	201.967
743.935	216.888
742.932	249.251
741.929	219.3
740.925	199.328
739.922	206.765
738.918	204.236
737.914	219.14
736.91	189.223
735.906	211.592
734.901	226.487
733.897	199.073
732.892	218.94
731.887	208.95
730.882	179.067
729.876	211.36
728.871	228.724
727.865	208.797
726.859	213.729
725.853	216.175
724.847	206.198
723.84	226.031
722.833	228.473
721.826	218.5
720.819	186.187
719.812	215.938
718.805	208.453
717.797	205.934
716.789	225.742
715.781	238.101
714.773	205.821
713.765	213.221
712.756	230.534
711.748	200.751
710.739	220.538
709.73	210.587
708.72	220.457
707.711	212.987
706.701	247.614
705.691	277.277
704.681	225.246
703.671	205.406
702.661	230.112
701.65	212.753
700.64	237.448
699.629	227.513
698.618	185.438
697.606	217.541
696.595	207.615
695.583	237.23
694.571	234.716
693.559	197.619
692.547	229.69
691.535	202.486
690.522	249.357
689.509	197.474
688.496	224.586
687.483	219.61
686.47	231.905
685.456	244.195
684.442	249.083
683.429	219.449
682.414	276.109
681.4	248.946
680.386	221.792
679.371	209.432
678.356	226.638
677.341	226.596
676.326	206.854
675.311	246.209
674.295	216.625
673.279	209.201
672.263	236.231
671.247	253.409
670.231	248.443
669.214	245.938
668.198	218.845
667.181	260.599
666.164	228.596
665.146	213.809
664.129	223.598
663.111	243.21
662.093	196.498
661.075	203.829
660.057	240.621
659.039	230.757
658.02	223.352
657.001	223.311
655.983	228.177
654.963	264.93
653.944	220.735
652.925	225.598
651.905	218.202
650.885	235.321
649.865	259.785
648.845	227.883
647.824	235.191
646.804	220.451
645.783	249.798
644.762	235.061
643.741	227.673
642.719	232.527
641.698	247.167
640.676	239.781
639.654	227.506
638.632	222.572
637.609	242.094
636.587	256.719
635.564	229.783
634.541	222.408
633.518	266.352
632.495	251.644
631.471	266.254
630.448	224.686
629.424	256.388
628.4	222.162
627.376	268.498
626.351	287.972
625.327	222.039
624.302	270.789
623.277	246.349
622.252	243.864
621.226	253.572
620.201	277.903
619.175	229.106
618.149	265.616
617.123	238.767
616.097	231.415
615.07	236.243
614.044	211.849
613.017	253.198
611.99	267.757
610.963	272.575
609.935	228.726
608.908	231.116
607.88	269.991
606.852	284.533
605.824	262.597
604.795	250.394
603.767	267.361
602.738	245.441
601.709	257.544
600.68	272.072
599.65	233.161
598.621	254.973
597.591	259.782
596.561	225.75
595.531	242.697
594.501	213.534
593.47	225.625
592.44	235.286
591.409	269.195
590.378	273.994
589.347	259.398
588.315	256.926
587.284	244.762
586.252	249.562
585.22	242.249
584.188	244.626
583.155	232.473
582.123	246.957
581.09	244.49
580.057	266.227
579.024	258.919
577.99	270.968
576.957	251.566
575.923	253.938
574.889	258.727
573.855	249.009
572.821	270.717
571.786	273.084
570.752	282.698
569.717	275.398
568.682	258.44
567.647	258.392
566.611	251.101
565.576	255.883
564.54	238.94
563.504	265.44
562.467	221.963
561.431	231.571
560.394	221.881
559.358	250.776
558.321	250.729
557.284	284.429
556.246	228.947
555.209	243.361
554.171	240.907
553.133	250.497
552.095	243.226
551.057	245.589
550.018	255.172
548.979	279.193
547.94	252.671
546.901	288.714
545.862	247.767
544.823	247.721
543.783	269.316
542.743	245.225
541.703	257.198
540.663	283.586
539.622	266.714
538.582	237.836
537.541	225.782
536.5	278.573
535.459	256.912
534.417	242.46
533.376	247.216
532.334	227.972
531.292	247.124
530.25	247.078
529.207	273.414
528.165	251.782
527.122	256.53
526.079	263.674
525.036	251.642
523.992	256.388
522.949	246.757
521.905	280.245
520.861	251.455
519.817	249.014
518.773	277.695
517.728	277.643
516.684	265.626
515.639	246.436
514.594	277.488
513.548	287.004
512.503	243.908
511.457	251.035
510.411	279.673
509.365	277.231
508.319	255.674
507.273	267.571
506.226	317.682
505.179	284.189
504.132	255.484
503.085	260.211
502.037	260.162
500.99	267.273
499.942	274.381
498.894	288.643
497.846	259.969
496.797	252.767
495.749	281.329
494.7	269.358
493.651	264.542
492.602	264.493
491.552	245.384
490.503	321.56
489.453	233.386
488.403	280.963
487.353	233.299
486.303	266.577
485.252	285.565
484.201	297.409
483.15	278.323
482.099	304.433
481.048	285.353
479.996	278.167
478.945	294.755
477.893	249.544
476.841	263.755
475.788	268.457
474.736	261.281
473.683	273.107
472.63	246.937
471.577	277.753
470.524	277.701
469.47	275.276
468.417	265.734
467.363	258.568
466.309	282.237
465.254	241.873
464.2	303.47
463.145	296.302
462.09	289.137
461.035	277.235
459.98	317.458
458.925	296.081
457.869	298.394
456.813	303.074
455.757	281.711
454.701	291.126
453.644	305.27
452.588	300.481
451.531	279.135
450.474	302.734
449.417	276.666
448.359	304.985
447.302	307.292
446.244	316.688
445.186	283.548
444.128	316.57
443.069	295.253
442.011	295.197
440.952	318.754
439.893	302.169
438.834	280.871
437.774	299.697
436.715	318.516
435.655	304.302
434.595	301.887
433.535	278.25
432.474	318.277
431.414	294.646
430.353	325.229
429.292	306.317
428.231	313.328
427.169	322.691
426.108	310.856
425.046	294.316
423.984	296.615
422.922	296.559
421.859	320.036
420.797	310.565
419.734	303.45
418.671	317.504
417.608	329.202
416.544	336.194
415.481	298.522
414.417	321.967
413.353	331.305
412.289	326.545
411.225	338.228
410.16	321.726
409.095	335.753
408.03	326.3
406.965	328.586
405.9	305.059
404.834	337.848
403.768	384.699
402.702	384.627
401.636	398.624
400.57	356.35
399.503	351.595
398.436	379.652
397.37	330.376
396.302	332.656
395.235	332.594
394.167	311.456
393.1	341.835
392.032	351.134
390.964	330.004
389.895	351.002
388.827	374.332
387.758	341.514
386.689	350.805
385.62	355.416
384.55	364.7
383.481	357.62
382.411	364.563
381.341	348.14
380.271	359.755
379.2	326.988
378.13	392.312
377.059	354.883
375.988	368.822
374.917	361.751
373.846	347.682
372.774	328.953
371.702	363.88
370.63	359.147
369.558	314.778
368.486	366.006
367.413	358.945
366.34	340.234
365.267	361.14
364.194	370.39
363.121	333.056
362.047	323.678
360.973	325.946
359.899	363.128
358.825	384.006
357.751	381.607
356.676	325.701
355.601	362.856
354.526	390.694
353.451	369.694
352.376	334.755
351.3	325.395
350.224	348.572
349.148	346.183
348.072	404.191
346.996	346.052
345.919	332.055
344.842	394.676
343.765	382.996
342.688	338.83
341.61	359.649
340.533	364.221
339.455	405.902
338.377	359.446
337.299	366.334
336.22	377.856
335.141	343.019
334.063	359.175
332.984	396.177
331.904	377.571
330.825	349.709
329.745	377.429
328.665	375.043
327.585	358.77
326.505	391.101
325.424	374.831
324.344	365.507
323.263	381.628
322.182	395.431
321.1	383.796
320.019	349.05
318.937	367.474
317.855	374.337
316.773	406.61
315.691	378.815
314.608	387.981
313.526	387.908
312.443	387.835
311.359	376.221
310.276	350.766
309.193	389.923
308.109	401.383
307.025	431.29
305.941	357.419
304.856	387.323
303.772	412.606
302.687	338.78
301.602	394.016
300.517	387.031
299.431	400.778
298.346	391.491
297.26	370.695
296.174	377.531
295.088	393.57
294.001	377.388
292.915	400.324
291.828	393.347
290.741	386.374
289.654	342.612
288.566	402.32
287.479	406.842
286.391	374.591
285.303	457.237
284.214	404.314
283.126	404.237
282.037	431.717
280.948	388.013
279.859	408.599
278.77	397.047
277.681	417.623
276.591	376.249
275.501	392.234
274.411	382.986
273.321	403.55
272.23	392.011
271.139	424.026
270.048	382.697
268.957	380.333
267.866	394.006
266.774	400.802
265.682	446.523
264.59	382.335
263.498	423.464
262.406	460.001
261.313	400.423
260.221	414.073
259.128	418.569
258.034	445.932
256.941	413.838
255.847	409.188
254.753	420.538
253.659	431.884
252.565	429.517
251.471	424.867
250.376	417.936
249.281	442.973
248.186	424.626
247.091	438.241
245.995	465.542
244.9	390.16
243.804	456.241
242.708	469.839
241.611	437.826
240.515	437.743
239.418	412.585
238.321	446.693
237.224	455.722
236.126	464.749
235.029	482.883
233.931	425.858
232.833	480.423
231.735	455.29
230.636	500.725
229.538	459.669
228.439	475.508
227.34	461.769
226.241	488.973
225.141	518.441
224.042	472.874
222.942	479.603
221.842	413.607
220.741	486.237
219.641	467.971
218.54	456.526
217.439	476.877
216.338	456.353
215.237	469.886
214.135	440.292
213.034	442.478
211.932	483.23
210.829	471.797
209.727	489.85
208.624	480.687
207.522	489.664
206.419	464.639
205.315	430.559
204.212	464.462
203.108	514.209
202.005	491.464
200.9	543.451
199.796	489.013
198.692	525.136
197.587	500.142
196.482	481.946
195.377	475.068
194.272	497.595
193.166	483.932
192.06	508.711
190.955	483.748
189.848	485.916
188.742	503.901
187.635	533.175
186.529	478.863
185.422	494.58
184.314	471.907
183.207	505.679
182.099	550.724
180.992	498.717
179.883	530.209
178.775	512.062
177.667	523.241
176.558	527.651
175.449	547.841
174.34	522.942
173.231	493.545
172.121	531.755
171.011	545.171
169.901	576.6
168.791	583.246
167.681	592.14
166.57	519.994
165.46	535.649
164.349	591.802
163.237	560.192
162.126	596.075
161.014	616.202
159.902	530.642
158.79	582.246
157.678	548.42
156.565	575.282
155.453	584.159
154.34	588.541
153.227	577.199
152.113	608.526
151	599.429
149.886	597.07
148.772	608.177
147.658	587.867
146.543	598.972
145.429	630.258
144.314	630.138
143.199	600.871
142.084	607.481
140.968	654.43
139.853	634.138
138.737	586.97
137.621	598.058
136.504	640.494
135.388	660.523
134.271	626.817
133.154	673.7
132.037	655.669
130.919	709.24
129.802	637.523
128.684	715.678
127.566	706.597
126.448	614.801
125.329	692.916
124.211	661.497
123.092	688.182
121.973	748.367
120.853	705.787
119.734	705.652
118.614	754.636
117.494	812.529
116.374	752.115
115.253	801.062
114.133	818.756
113.012	762.836
111.891	758.23
110.77	744.707
109.648	809.212
108.527	809.058
107.405	804.446
106.283	748.593
105.16	761.815
104.038	728.263
102.915	710.31
101.792	705.721
100.669	701.135
