3201.26	21.0564
3200.67	50.5354
3200.08	12.6319
3199.48	12.63
3198.89	46.3032
3198.3	46.2962
3197.7	50.4973
3197.11	33.6598
3196.51	54.6888
3195.92	42.062
3195.32	54.6723
3194.73	25.2296
3194.13	92.4944
3193.54	21.0183
3192.95	63.0453
3192.35	21.0119
3191.76	54.6228
3191.16	16.8045
3190.56	0
3189.97	46.1983
3189.37	25.1953
3188.78	46.1843
3188.18	46.1774
3187.59	29.3812
3186.99	12.59
3186.4	-4.19604
3185.8	41.954
3185.2	20.9738
3184.61	20.9707
3184.01	37.7415
3183.42	54.5073
3182.82	29.3456
3182.22	16.7664
3181.63	29.3368
3181.03	54.4743
3180.43	33.5176
3179.84	29.3234
3179.24	37.6959
3178.64	50.2536
3178.05	25.123
3177.45	29.3057
3176.85	37.6731
3176.25	33.4821
3175.66	16.7385
3175.06	20.92
3174.46	62.7504
3173.86	29.2791
3173.27	25.0926
3172.67	50.1776
3172.07	29.2658
3171.47	33.4416
3170.87	45.9752
3170.28	8.35786
3169.68	25.0698
3169.08	41.7767
3168.48	37.5933
3167.88	20.882
3167.28	41.7577
3166.68	33.4011
3166.09	25.047
3165.49	54.2603
3164.89	45.9056
3164.29	33.3809
3163.69	20.8599
3163.09	25.0281
3162.49	41.7071
3161.89	37.5307
3161.29	41.6945
3160.69	41.6882
3160.09	33.3455
3159.49	12.5027
3158.89	58.3369
3158.29	20.8315
3157.69	37.4909
3157.09	37.4853
3156.49	16.6576
3155.89	16.6551
3155.29	41.6314
3154.69	54.1126
3154.09	45.7806
3153.49	41.6124
3152.89	41.6061
3152.29	41.5998
3151.69	45.7529
3151.08	49.9046
3150.48	49.8971
3149.88	37.4171
3149.28	45.7251
3148.68	45.7182
3148.08	54.0224
3147.48	-4.15494
3146.87	24.9258
3146.27	49.8441
3145.67	29.0713
3145.07	12.4573
3144.47	4.15179
3143.86	24.9069
3143.26	33.2042
3142.66	41.499
3142.06	74.6868
3141.45	37.3378
3140.85	16.592
3140.25	58.0633
3139.64	29.0273
3139.04	58.0457
3138.44	16.582
3137.84	29.014
3137.23	49.7308
3136.63	33.1488
3136.03	33.1438
3135.42	28.9964
3134.82	53.8423
3134.21	45.552
3133.61	24.8428
3133.01	33.1187
3132.4	33.1136
3131.8	49.6629
3131.19	37.2415
3130.59	24.8239
3129.99	41.3669
3129.38	57.9049
3128.78	37.2189
3128.17	20.674
3127.57	45.476
3126.96	49.6026
3126.36	37.1963
3125.75	16.5292
3125.15	12.395
3124.54	16.5242
3123.94	74.3474
3123.33	16.5191
3122.73	33.0332
3122.12	28.8997
3121.52	57.7906
3120.91	45.4
3120.3	12.3799
3119.7	8.25204
3119.09	57.7555
3118.49	16.4991
3117.88	24.7448
3117.27	24.7411
3116.67	45.3517
3116.06	41.2226
3115.45	41.2163
3114.85	61.8151
3114.24	28.8426
3113.63	37.0778
3113.03	24.7147
3112.42	53.5405
3111.81	57.6502
3111.21	45.2897
3110.6	41.1662
3109.99	24.696
3109.38	32.9229
3108.78	4.11474
3108.17	78.1682
3107.56	16.454
3106.95	49.3544
3106.34	69.908
3105.74	20.5581
3105.13	32.8879
3104.52	16.4414
3103.91	53.4266
3103.3	57.5275
3102.7	41.0848
3102.09	20.5393
3101.48	45.1796
3100.87	36.9595
3100.26	32.8479
3099.65	28.7375
3099.04	20.5237
3098.43	16.4164
3097.82	20.5174
3097.21	28.72
3096.61	16.4089
3096	49.2193
3095.39	45.1108
3094.78	28.7025
3094.17	36.8976
3093.56	20.4956
3092.95	53.2803
3092.34	32.7829
3091.73	40.9724
3091.12	53.256
3090.51	57.3439
3089.9	40.9537
3089.28	45.0422
3088.67	20.4706
3088.06	57.3089
3087.45	40.9287
3086.84	20.4612
3086.23	36.8246
3085.62	24.546
3085.01	69.5364
3084.4	32.718
3083.79	40.8913
3083.17	77.6816
3082.56	49.0546
3081.95	36.7853
3081.34	65.3862
3080.73	20.4301
3080.12	57.1955
3079.5	57.1868
3078.89	32.6732
3078.28	49.0023
3077.67	61.2435
3077.05	8.16456
3076.44	57.1432
3075.83	24.4862
3075.22	12.2412
3074.6	40.7979
3073.99	0
3073.38	16.3142
3072.77	48.9351
3072.15	48.9276
3071.54	40.7668
3070.93	24.4563
3070.31	24.4526
3069.7	28.5237
3069.08	61.1128
3068.47	73.3242
3067.86	36.6565
3067.24	40.7232
3066.63	48.8604
3066.02	44.7819
3065.4	32.5637
3064.79	40.6984
3064.17	24.4153
3063.56	20.343
3062.94	44.7477
3062.33	20.3368
3061.71	77.2679
3061.1	73.19
3060.48	48.7859
3059.87	20.3244
3059.25	52.8352
3058.64	40.6363
3058.02	56.8821
3057.41	28.4367
3056.79	0
3056.18	36.5503
3055.56	28.4237
3054.95	48.7189
3054.33	20.2964
3053.71	32.4693
3053.1	48.6966
3052.48	40.5743
3051.87	48.6817
3051.25	44.618
3050.63	73.0002
3050.02	20.2747
3049.4	48.6519
3048.78	-8.10741
3048.17	52.6901
3047.55	56.7346
3046.93	24.3111
3046.31	24.3074
3045.7	28.3543
3045.08	28.3499
3044.46	12.1481
3043.85	40.4875
3043.23	16.1925
3042.61	76.9028
3041.99	44.5158
3041.37	24.2777
3040.76	56.6392
3040.14	44.4954
3039.52	44.4886
3038.9	32.3504
3038.28	4.04318
3037.67	28.298
3037.05	48.5034
3036.43	44.4546
3035.81	28.285
3035.19	44.441
3034.57	28.2763
3033.95	44.4274
3033.33	48.4588
3032.71	40.3762
3032.1	48.444
3031.48	16.1455
3030.86	44.3934
3030.24	60.5272
3029.62	12.1036
3029	32.2713
3028.38	32.2664
3027.76	24.1961
3027.14	36.2885
3026.52	28.2201
3025.9	48.3699
3025.28	36.2719
3024.66	60.4439
3024.04	44.3187
3023.42	28.1985
3022.8	60.4161
3022.17	32.217
3021.55	44.2916
3020.93	20.1294
3020.31	64.4044
3019.69	16.0986
3019.07	68.4087
3018.45	68.3982
3017.83	16.0912
3017.2	52.2885
3016.58	44.2373
3015.96	84.4401
3015.34	64.3255
3014.72	72.3551
3014.1	48.2293
3013.47	60.2774
3012.85	48.2145
3012.23	68.2935
3011.61	32.1332
3010.98	64.2565
3010.36	68.2621
3009.74	32.1184
3009.12	72.2553
3008.49	56.19
3007.87	56.1813
3007.25	60.1851
3006.62	32.0938
3006	28.0777
3005.38	76.1993
3004.75	56.1383
3004.13	76.176
3003.51	52.1124
3002.88	56.1124
3002.26	60.1113
3001.63	68.1156
3001.01	52.0804
3000.39	36.0502
2999.76	60.0744
2999.14	24.0261
2998.51	68.0634
2997.89	60.0467
2997.26	36.0225
2996.64	28.0132
2996.02	48.0153
2995.39	72.0119
2994.77	68.0008
2994.14	51.9926
2993.51	59.9822
2992.89	31.9856
2992.26	87.947
2991.64	43.9667
2991.01	59.9454
2990.39	67.9277
2989.76	59.927
2989.14	43.9397
2988.51	79.8781
2987.88	67.886
2987.26	59.8902
2986.63	51.8969
2986.01	39.9145
2985.38	59.8626
2984.75	107.736
2984.13	67.8235
2983.5	79.78
2982.87	67.8026
2982.25	91.7189
2981.62	55.8203
2980.99	39.8655
2980.36	67.761
2979.74	47.8239
2979.11	79.6943
2978.48	75.6979
2977.85	63.7358
2977.23	55.7603
2976.6	51.7694
2975.97	63.7064
2975.34	79.6208
2974.71	99.5107
2974.09	103.475
2973.46	67.6465
2972.83	87.529
2972.2	111.383
2971.57	59.6605
2970.94	91.4654
2970.32	79.5229
2969.69	103.364
2969.06	67.5737
2968.43	115.255
2967.8	151.001
2967.17	119.193
2966.54	115.202
2965.91	115.184
2965.28	123.109
2964.65	91.3248
2964.02	99.2508
2963.39	111.144
2962.76	91.2827
2962.13	107.141
2961.5	111.093
2960.87	122.976
2960.24	158.655
2959.61	138.802
2958.98	111.024
2958.35	138.759
2957.72	142.701
2957.09	122.863
2956.46	103.03
2955.83	126.787
2955.2	126.768
2954.57	150.513
2953.93	142.57
2953.3	142.548
2952.67	158.362
2952.04	166.254
2951.41	122.693
2950.78	142.46
2950.14	130.568
2949.51	154.284
2948.88	146.349
2948.25	177.965
2947.62	162.121
2946.98	146.282
2946.35	142.306
2945.72	205.522
2945.09	245.008
2944.45	189.654
2943.82	205.427
2943.19	217.245
2942.55	209.313
2941.92	205.332
2941.29	236.885
2940.65	205.269
2940.02	201.29
2939.39	244.668
2938.75	220.956
2938.12	260.373
2937.49	220.888
2936.85	252.405
2936.22	272.082
2935.58	272.04
2934.95	264.114
2934.32	228.601
2933.68	248.269
2933.05	256.111
2932.41	260.012
2931.78	271.788
2931.14	236.301
2930.51	263.829
2929.87	248.04
2929.24	248.001
2928.6	255.835
2927.97	228.248
2927.33	267.56
2926.7	318.662
2926.06	224.209
2925.43	251.705
2924.79	298.853
2924.15	279.149
2923.52	263.381
2922.88	310.506
2922.25	298.669
2921.61	267.189
2920.97	247.504
2920.34	286.746
2919.7	235.646
2919.06	278.804
2918.43	278.761
2917.79	286.569
2917.15	219.8
2916.52	274.708
2915.88	290.36
2915.24	278.546
2914.6	254.968
2913.97	274.538
2913.33	258.81
2912.69	278.374
2912.05	274.411
2911.42	290.047
2910.78	262.569
2910.14	270.365
2909.5	262.488
2908.86	293.784
2908.23	238.908
2907.59	317.189
2906.95	297.564
2906.31	289.688
2905.67	317.042
2905.03	316.993
2904.39	301.293
2903.75	305.158
2903.12	281.641
2902.48	355.908
2901.84	344.121
2901.2	316.699
2900.56	312.741
2899.92	332.236
2899.28	336.093
2898.64	328.226
2898	339.895
2897.36	300.78
2896.72	363.224
2896.08	285.067
2895.44	335.781
2894.8	335.729
2894.16	335.677
2893.52	327.82
2892.88	362.887
2892.24	358.929
2891.59	378.378
2890.95	409.521
2890.31	421.156
2889.67	393.798
2889.03	444.416
2888.39	409.268
2887.75	362.438
2887.11	467.59
2886.46	510.373
2885.82	521.98
2885.18	588.11
2884.54	576.337
2883.9	576.247
2883.25	564.479
2882.61	533.253
2881.97	583.763
2881.33	552.544
2880.68	455.194
2880.04	482.353
2879.4	443.385
2878.76	431.65
2878.11	431.584
2877.47	443.179
2876.83	423.676
2876.18	446.928
2875.54	365.259
2874.9	392.398
2874.25	372.915
2873.61	392.276
2872.97	353.382
2872.32	353.328
2871.68	318.334
2871.03	357.1
2870.39	388.092
2869.75	384.151
2869.1	360.813
2868.46	310.329
2867.81	337.43
2867.17	372.279
2866.52	329.571
2865.88	360.534
2865.23	372.106
2864.59	406.928
2863.94	453.364
2863.3	418.425
2862.65	360.254
2862.01	395.056
2861.36	336.907
2860.71	367.83
2860.07	398.744
2859.42	352.233
2858.78	414.1
2858.13	367.602
2857.48	398.496
2856.84	352.015
2856.19	433.182
2855.55	409.912
2854.9	402.116
2854.25	405.919
2853.61	475.431
2852.96	459.899
2852.31	440.507
2851.66	463.619
2851.02	536.943
2850.37	513.685
2849.72	417.063
2849.08	413.137
2848.43	474.841
2847.78	378.27
2847.13	501.709
2846.48	520.924
2845.84	443.681
2845.19	455.185
2844.54	393.404
2843.89	420.337
2843.24	362.436
2842.59	358.525
2841.95	319.924
2841.3	308.313
2840.65	250.465
2840	235.015
2839.35	215.718
2838.7	184.873
2838.05	180.993
2837.4	200.216
2836.75	177.087
2836.1	130.87
2835.45	142.395
2834.81	157.765
2834.16	119.267
2833.51	119.248
2832.86	119.23
2832.21	92.2927
2831.56	119.193
2830.9	92.264
2830.25	99.9371
2829.6	103.765
2828.95	111.434
2828.3	80.6808
2827.65	122.923
2827	99.8594
2826.35	88.3235
2825.7	107.507
2825.05	80.6181
2824.4	72.9288
2823.74	65.2419
2823.09	92.0919
2822.44	69.0582
2821.79	69.0475
2821.14	49.8599
2820.49	53.6869
2819.83	69.0152
2819.18	76.6717
2818.53	57.4948
2817.88	72.8154
2817.23	72.8041
2816.57	80.4551
2815.92	57.459
2815.27	76.6001
2814.61	38.2941
2813.96	76.5762
2813.31	61.2514
2812.66	68.8971
2812	57.4054
2811.35	84.1814
2810.7	84.1683
2810.04	126.233
2809.39	65.0189
2808.73	72.6568
2808.08	45.8814
2807.43	68.8114
2806.77	95.5564
2806.12	53.5033
2805.46	22.9264
2804.81	64.948
2804.15	99.3168
2803.5	68.747
2802.85	64.9176
2802.19	68.7256
2801.54	68.7149
2800.88	87.7887
2800.23	80.1424
2799.57	76.3142
2798.92	41.9663
2798.26	68.6614
2797.6	64.8367
2796.95	41.9466
2796.29	64.8165
2795.64	49.5579
2794.98	64.7963
2794.33	53.3534
2793.67	49.5347
2793.01	87.6246
2792.36	45.7101
2791.7	64.7458
2791.04	79.9676
2790.39	68.533
2789.73	60.9087
2789.07	64.7054
2788.42	53.2785
2787.76	76.1003
2787.1	49.4575
2786.45	68.4689
2785.79	57.0485
2785.13	45.6317
2784.47	60.8327
2783.82	45.6174
2783.16	91.2206
2782.5	57.004
2781.84	79.7931
2781.18	102.575
2780.53	72.1712
2779.87	53.1705
2779.21	53.1622
2778.55	41.7638
2777.89	68.3301
2777.23	41.7507
2776.57	72.1036
2775.92	60.7094
2775.26	72.0811
2774.6	68.2767
2773.94	60.6809
2773.28	64.4634
2772.62	26.5396
2771.96	49.2802
2771.3	72.0136
2770.64	75.7919
2769.98	37.8901
2769.32	49.2494
2768.66	68.1808
2768	41.6595
2767.34	64.3728
2766.68	41.6465
2766.02	68.1382
2765.36	56.7729
2764.7	79.4697
2764.04	75.6736
2763.38	90.7941
2762.72	52.9549
2762.06	68.0743
2761.39	26.4692
2760.73	56.7108
2760.07	79.3828
2759.41	52.9136
2758.75	98.2527
2758.09	68.0104
2757.43	75.5553
2756.76	64.212
2756.1	52.8722
2755.44	49.0879
2754.78	49.0803
2754.12	49.0726
2753.45	79.2587
2752.79	98.1144
2752.13	52.8226
2751.46	64.1317
2750.8	64.1216
2750.14	79.1967
2749.48	94.267
2748.81	75.4018
2748.15	64.0815
2747.49	71.6093
2746.82	82.9031
2746.16	71.5869
2745.5	67.8085
2744.83	67.7979
2744.17	75.3192
2743.5	60.246
2742.84	79.0604
2742.18	109.162
2741.51	82.7993
2740.85	79.0233
2740.18	67.7236
2739.52	48.9039
2738.85	124.121
2738.19	75.2131
2737.52	75.2014
2736.86	82.7085
2736.19	101.49
2735.53	97.7158
2734.86	112.731
2734.2	105.199
2733.53	105.183
2732.87	90.1427
2732.2	67.5964
2731.54	93.8692
2730.87	131.396
2730.2	123.869
2729.54	131.355
2728.87	101.315
2728.2	112.555
2727.54	108.786
2726.87	105.018
2726.21	135.002
2725.54	108.735
2724.87	89.9733
2724.2	112.449
2723.54	86.1974
2722.87	93.6781
2722.2	112.396
2721.54	78.6649
2720.87	104.87
2720.2	112.343
2719.53	131.047
2718.87	108.564
2718.2	119.776
2717.53	97.303
2716.86	115.997
2716.19	108.496
2715.52	97.2572
2714.86	112.202
2714.19	48.6134
2713.52	82.2558
2712.85	82.2429
2712.18	89.7055
2711.51	85.9543
2710.84	56.0483
2710.17	100.871
2709.5	104.591
2708.84	63.4915
2708.17	67.2158
2707.5	115.742
2706.83	104.525
2706.16	55.9868
2705.49	70.9054
2704.82	100.745
2704.15	82.0752
2703.48	93.2527
2702.81	63.4018
2702.14	59.663
2701.47	78.2953
2700.79	85.7386
2700.12	100.634
2699.45	40.9925
2698.78	100.602
2698.11	52.1559
2697.44	74.4967
2696.77	100.555
2696.1	70.7496
2695.43	93.077
2694.75	107.952
2694.08	74.4382
2693.41	78.1478
2692.74	63.2526
2692.07	63.2426
2691.39	63.2327
2690.72	81.8177
2690.05	104.115
2689.38	104.099
2688.71	59.4757
2688.03	104.066
2687.36	107.766
2686.69	66.8786
2686.01	78.0127
2685.34	85.4291
2684.67	70.5608
2683.99	66.8365
2683.32	118.802
2682.65	55.6796
2681.97	85.3619
2681.3	59.3729
2680.63	51.9431
2679.95	92.7409
2679.28	55.6358
2678.6	25.9593
2677.93	74.1577
2677.26	66.7314
2676.58	96.3747
2675.91	96.3595
2675.23	62.9944
2674.56	88.9192
2673.88	48.157
2673.21	85.1874
2672.53	66.6579
2671.86	74.0527
2671.18	77.7431
2670.51	70.3279
2669.83	81.4195
2669.16	77.7064
2668.48	44.3966
2667.8	77.6819
2667.13	51.7798
2666.45	66.5635
2665.78	29.5791
2665.1	88.7234
2664.42	88.7094
2663.75	92.3911
2663.07	88.6814
2662.39	55.4172
2661.72	66.4901
2661.04	92.3328
2660.36	51.6982
2659.69	44.3058
2659.01	81.2145
2658.33	40.6008
2657.65	84.8793
2656.98	66.4168
2656.3	66.4063
2655.62	70.0845
2654.94	59.0092
2654.26	62.6874
2653.59	84.799
2652.91	62.6676
2652.23	33.1718
2651.55	70.0182
2650.87	73.6918
2650.19	77.3641
2649.52	62.6182
2648.84	40.5113
2648.16	77.3275
2647.48	69.952
2646.8	58.8976
2646.12	36.8052
2645.44	73.5988
2644.76	44.1523
2644.08	84.6119
2643.4	99.3114
2642.72	58.8419
2642.04	88.2489
2641.36	77.2056
2640.68	55.1382
2640	77.1812
2639.32	73.4943
2638.64	51.4379
2637.96	84.4918
2637.28	66.1136
2636.6	62.4307
2635.92	55.0772
2635.24	88.1097
2634.56	55.0599
2633.88	77.0716
2633.19	77.0594
2632.51	40.3581
2631.83	77.0351
2631.15	62.3519
2630.47	69.6764
2629.79	69.6654
2629.1	98.9826
2628.42	73.3088
2627.74	87.9567
2627.06	76.9499
2626.38	76.9378
2625.69	76.9256
2625.01	36.6255
2624.33	51.2675
2623.65	84.2119
2622.96	102.503
2622.28	69.5444
2621.6	80.5124
2620.91	73.1815
2620.23	80.4869
2619.55	62.1846
2618.86	51.2027
2618.18	73.1352
2617.5	54.8427
2616.81	62.1453
2616.13	105.996
2615.44	91.3612
2614.76	87.6929
2614.07	65.7592
2613.39	84.0124
2612.71	76.6948
2612.02	76.6827
2611.34	127.784
2610.65	62.0568
2609.97	54.7474
2609.28	69.3357
2608.6	94.8654
2607.91	80.258
2607.23	54.7127
2606.54	40.1163
2605.85	51.049
2605.17	80.2072
2604.48	61.9685
2603.8	65.6033
2603.11	80.1691
2602.42	83.7999
2601.74	72.858
2601.05	98.3427
2600.37	50.9844
2599.68	61.8999
2598.99	69.1712
2598.31	72.8003
2597.62	83.7071
2596.93	101.888
2596.24	94.5954
2595.56	98.2181
2594.87	80.0169
2594.18	65.458
2593.49	58.1757
2592.81	47.2602
2592.12	39.9831
2591.43	69.0508
2590.74	90.8419
2590.06	69.0289
2589.37	83.5481
2588.68	65.3751
2587.99	68.9961
2587.3	54.462
2586.61	61.7138
2585.92	32.6668
2585.24	58.0651
2584.55	54.4274
2583.86	50.7909
2583.17	50.7828
2582.48	76.1622
2581.79	54.3929
2581.1	76.138
2580.41	68.8758
2579.72	79.7383
2579.03	101.469
2578.34	65.2197
2577.65	90.5686
2576.96	72.4434
2576.27	43.4591
2575.58	54.3153
2574.89	90.5111
2574.2	79.6372
2573.51	72.3859
2572.82	97.7055
2572.13	72.363
2571.43	79.5866
2570.74	101.276
2570.05	97.6435
2569.36	72.317
2568.67	46.9986
2567.98	79.5235
2567.29	61.4402
2566.59	68.6576
2565.9	61.4207
2565.21	72.2482
2564.52	43.342
2563.83	57.7802
2563.13	72.2137
2562.44	46.9315
2561.75	75.8003
2561.06	86.6152
2560.36	79.3847
2559.67	75.7642
2558.98	72.1449
2558.28	64.9201
2557.59	104.577
2556.9	64.8995
2556.2	75.7041
2555.51	64.8789
2554.82	57.661
2554.12	75.668
2553.43	43.232
2552.73	79.246
2552.04	54.0228
2551.35	43.2114
2550.65	68.4071
2549.96	100.794
2549.26	64.7861
2548.57	61.1772
2547.87	75.5598
2547.18	46.7677
2546.48	71.9388
2545.79	71.9274
2545.09	75.5117
2544.4	64.714
2543.7	75.4877
2543.01	79.0698
2542.31	46.7156
2541.61	107.788
2540.92	61.0702
2540.22	64.6523
2539.53	32.321
2538.83	64.6317
2538.13	100.522
2537.44	75.3797
2536.74	35.8894
2536.04	82.5324
2535.35	75.3437
2534.65	43.0467
2533.95	111.186
2533.26	32.2747
2532.56	75.2957
2531.86	46.6042
2531.16	68.103
2530.47	89.5949
2529.77	46.582
2529.07	96.7317
2528.37	64.4775
2527.68	39.3967
2526.98	64.457
2526.28	82.3486
2525.58	53.6971
2524.88	60.847
2524.18	67.9946
2523.48	67.9838
2522.79	28.6202
2522.09	71.5391
2521.39	78.6804
2520.69	71.5163
2519.99	60.7791
2519.29	53.6201
2518.59	60.7598
2517.89	92.9119
2517.19	64.3134
2516.49	67.8755
2515.79	85.7238
2515.09	82.1389
2514.39	71.4137
2513.69	71.4024
2512.99	82.0996
2512.29	71.3796
2511.59	78.505
2510.89	64.2211
2510.19	49.9418
2509.49	71.3341
2508.79	42.7936
2508.09	57.049
2507.38	78.4299
2506.68	71.2886
2505.98	64.1495
2505.28	85.519
2504.58	57.0035
2503.88	56.9945
2503.17	74.7933
2502.47	67.6593
2501.77	71.209
2501.07	71.1976
2500.36	103.22
2499.66	71.1749
2498.96	99.6289
2498.26	78.2674
2497.55	81.8119
2496.85	24.8953
2496.15	71.1181
2495.45	78.2174
2494.74	127.972
2494.04	67.5298
2493.33	67.519
2492.63	74.6144
2491.93	78.1549
2491.22	49.727
2490.52	35.5136
2489.82	95.8715
2489.11	74.5548
2488.41	67.4436
2487.7	95.8255
2487	74.5191
2486.29	63.8633
2485.59	67.4005
2484.88	53.2024
2484.18	74.4714
2483.47	49.6397
2482.77	60.2671
2482.06	67.3466
2481.36	67.3359
2480.65	81.4988
2479.95	77.9429
2479.24	88.5573
2478.54	46.0424
2477.83	67.282
2477.12	99.1366
2476.42	88.5007
2475.71	63.7103
2475	42.4667
2474.3	53.0749
2473.59	49.5287
2472.88	99.0415
2472.18	81.3425
2471.47	95.4738
2470.76	53.0325
2470.06	67.1638
2469.35	38.8781
2468.64	56.5409
2467.93	81.2645
2467.23	63.5881
2466.52	52.9816
2465.81	56.5047
2465.1	84.7434
2464.39	74.1386
2463.69	60.0074
2462.98	74.1149
2462.27	63.5169
2461.56	70.563
2460.85	56.4414
2460.14	91.7026
2459.43	59.9498
2458.73	52.8884
2458.02	84.6079
2457.31	81.0695
2456.6	74.0082
2455.89	52.8545
2455.18	66.9383
2454.47	95.1076
2453.76	116.224
2453.05	77.4703
2452.34	56.333
2451.63	88.0062
2450.92	66.874
2450.21	52.7868
2449.5	63.334
2448.79	80.9138
2448.08	52.7614
2447.36	98.4722
2446.65	66.8097
2445.94	56.2518
2445.23	66.7883
2444.52	87.8652
2443.81	84.3371
2443.1	84.3236
2442.39	52.6938
2441.67	80.7842
2440.96	52.6769
2440.25	94.8032
2439.54	52.66
2438.83	63.1819
2438.11	84.229
2437.4	70.1795
2436.69	87.7104
2435.98	94.712
2435.26	38.5802
2434.55	98.1883
2433.84	49.0863
2433.12	73.6176
2432.41	94.636
2431.7	101.63
2430.98	87.5978
2430.27	73.5704
2429.56	73.5586
2428.84	73.5468
2428.13	77.0366
2427.41	98.0309
2426.7	98.0151
2425.99	94.4994
2425.27	80.4866
2424.56	80.4736
2423.84	83.959
2423.13	87.4433
2422.41	59.4519
2421.7	76.9254
2420.98	83.9051
2420.27	108.36
2419.55	97.8578
2418.84	41.9323
2418.12	104.814
2417.41	69.8648
2416.69	80.3316
2415.97	55.8738
2415.26	66.3395
2414.54	80.2928
2413.83	66.3182
2413.11	108.186
2412.39	69.7862
2411.68	73.2637
2410.96	101.157
2410.24	83.7031
2409.53	87.1767
2408.81	76.7031
2408.09	87.1487
2407.37	69.7077
2406.66	69.6965
2405.94	83.6224
2405.22	80.1252
2404.5	104.494
2403.79	83.582
2403.07	83.5686
2402.35	97.481
2401.63	66.1372
2400.91	66.1265
2400.19	76.5552
2399.48	55.6676
2398.76	73.0519
2398.04	83.4745
2397.32	111.281
2396.6	93.8786
2395.88	52.1464
2395.16	93.8484
2394.44	79.932
2393.72	79.9192
2393	76.4321
2392.28	104.209
2391.56	72.9344
2390.84	69.4502
2390.12	59.0232
2389.4	93.7276
2388.68	65.9458
2387.96	83.2866
2387.24	79.8034
2386.52	104.075
2385.8	93.6521
2385.08	62.4247
2384.36	93.622
2383.64	72.8053
2382.92	100.525
2382.2	76.2477
2381.48	117.818
2380.75	97.0113
2380.03	72.7467
2379.31	65.8078
2378.59	83.1123
2377.87	79.6365
2377.14	41.5428
2376.42	86.5335
2375.7	65.7548
2374.98	72.6647
2374.25	103.79
2373.53	89.9368
2372.81	79.5466
2372.09	96.8238
2371.36	100.266
2370.64	72.5944
2369.92	58.7574
2369.19	58.7479
2368.47	124.387
2367.75	79.4569
2367.02	86.3522
2366.3	86.3383
2365.57	75.9655
2364.85	82.858
2364.13	117.363
2363.4	103.539
2362.68	89.7194
2361.95	75.9042
2361.23	75.8919
2360.5	106.921
2359.78	100.007
2359.05	99.9909
2358.33	117.212
2357.6	93.065
2356.88	99.9425
2356.15	110.264
2355.43	82.6844
2354.7	120.562
2353.97	82.6577
2353.25	96.4184
2352.52	65.4162
2351.8	103.272
2351.07	89.488
2350.34	99.7974
2349.62	79.1369
2348.89	65.3634
2348.16	72.2321
2347.44	79.0985
2346.71	75.6472
2345.98	75.635
2345.25	99.6846
2344.53	103.105
2343.8	89.3435
2343.07	99.6363
2342.34	72.1387
2341.62	89.3002
2340.89	65.2473
2340.16	89.2713
2339.43	58.3603
2338.7	68.648
2337.97	99.5236
2337.25	89.2136
2336.52	89.1992
2335.79	58.3131
2335.06	82.3111
2334.33	85.7268
2333.6	89.1415
2332.87	92.555
2332.14	71.9756
2331.41	65.1102
2330.68	75.3786
2329.95	89.0694
2329.22	89.055
2328.49	75.342
2327.76	106.147
2327.03	61.6235
2326.3	58.1906
2325.57	88.983
2324.84	92.3904
2324.11	92.3755
2323.38	78.6775
2322.65	68.4041
2321.92	64.9734
2321.19	85.4775
2320.46	78.6266
2319.72	102.54
2318.99	58.0965
2318.26	75.1715
2317.53	95.6573
2316.8	64.8998
2316.07	75.135
2315.33	68.2935
2314.6	81.9389
2313.87	105.821
2313.14	75.0863
2312.4	105.786
2311.67	112.593
2310.94	92.1066
2310.2	78.4484
2309.47	98.8972
2308.74	68.1939
2308.01	119.32
2307.27	81.8062
2306.54	98.8331
2305.8	78.3722
2305.07	98.8011
2304.34	95.3787
2303.6	102.175
2302.87	98.7531
2302.13	105.546
2301.4	115.742
2300.67	81.6869
2299.93	91.8829
2299.2	112.283
2298.46	88.4511
2297.73	95.2396
2296.99	57.8147
2296.26	102.009
2295.52	108.792
2294.79	74.7826
2294.05	84.9664
2293.31	115.536
2292.58	64.5535
2291.84	112.101
2291.11	71.3255
2290.37	95.0852
2289.63	115.442
2288.9	129.002
2288.16	105.222
2287.42	84.8424
2286.69	61.0766
2285.95	61.0667
2285.21	78.017
2284.48	84.7873
2283.74	105.119
2283	88.1502
2282.26	105.085
2281.53	84.7322
2280.79	91.496
2280.05	105.034
2279.31	91.4662
2278.57	101.613
2277.84	121.915
2277.1	98.1937
2276.36	74.4796
2275.62	88.0071
2274.88	98.1458
2274.14	104.897
2273.4	94.7307
2272.67	67.6538
2271.93	74.407
2271.19	111.592
2270.45	71.0018
2269.71	67.6098
2268.97	98.0183
2268.23	108.14
2267.49	101.365
2266.75	94.5922
2266.01	97.9545
2265.27	97.9386
2264.53	118.183
2263.79	104.659
2263.05	94.5153
2262.31	70.8749
2261.57	80.9867
2260.82	84.3475
2260.08	70.8404
2259.34	84.32
2258.6	84.3063
2257.86	47.2039
2257.12	104.506
2256.38	111.23
2255.63	84.2515
2254.89	90.9768
2254.15	114.545
2253.41	87.5787
2252.67	90.9324
2251.92	111.121
2251.18	87.536
2250.44	84.1555
2249.7	74.0448
2248.95	104.319
2248.21	90.8436
2247.47	100.921
2246.72	70.6331
2245.98	107.614
2245.24	90.7844
2244.49	127.75
2243.75	104.2
2243	100.822
2242.26	70.5641
2241.52	77.2719
2240.77	67.182
2240.03	104.115
2239.28	67.1601
2238.54	97.3663
2237.79	97.3504
2237.05	110.76
2236.3	77.1838
2235.56	104.013
2234.81	114.061
2234.07	73.7919
2233.32	83.8407
2232.58	100.592
2231.83	90.5185
2231.09	117.32
2230.34	90.489
2229.59	113.93
2228.85	103.861
2228.1	110.544
2227.35	97.1285
2226.61	113.856
2225.86	90.4005
2225.11	107.124
2224.37	90.371
2223.62	93.7028
2222.87	120.455
2222.13	97.0176
2221.38	120.416
2220.63	123.741
2219.88	103.658
2219.14	86.9245
2218.39	80.2249
2217.64	93.5805
2216.89	83.5404
2216.14	86.8678
2215.4	96.8752
2214.65	116.899
2213.9	120.22
2213.15	106.844
2212.4	116.842
2211.65	90.1205
2210.9	103.455
2210.15	103.438
2209.4	103.421
2208.65	83.3904
2207.9	116.728
2207.16	106.705
2206.41	153.363
2205.66	133.338
2204.91	99.9868
2204.15	126.629
2203.4	133.272
2202.65	106.6
2201.9	126.567
2201.15	139.867
2200.4	119.867
2199.65	56.5944
2198.9	106.513
2198.15	93.1839
2197.4	133.098
2196.65	113.115
2195.89	96.4645
2195.14	126.381
2194.39	96.433
2193.64	96.4172
2192.89	119.671
2192.13	109.68
2191.38	122.955
2190.63	96.3542
2189.88	136.203
2189.12	112.93
2188.37	102.949
2187.62	126.175
2186.87	96.2754
2186.11	99.5789
2185.36	102.881
2184.61	142.683
2183.85	122.754
2183.1	136.002
2182.35	132.663
2181.59	109.429
2180.84	122.673
2180.08	106.079
2179.33	142.52
2178.57	102.73
2177.82	125.906
2177.07	109.322
2176.31	92.7427
2175.56	109.286
2174.8	99.3347
2174.05	105.94
2173.29	129.093
2172.53	115.834
2171.78	112.506
2171.02	122.412
2170.27	119.084
2169.51	105.836
2168.76	112.432
2168	76.0444
2167.24	128.924
2166.49	132.208
2165.73	109.054
2164.97	138.773
2164.22	132.143
2163.46	115.606
2162.7	95.7721
2161.95	82.5486
2161.19	102.343
2160.43	112.229
2159.67	132.013
2158.92	112.192
2158.16	112.174
2157.4	135.247
2156.64	145.119
2155.88	128.607
2155.13	115.398
2154.37	125.268
2153.61	131.84
2152.85	102.159
2152.09	108.732
2151.33	98.8311
2150.57	98.8149
2149.82	69.1591
2149.06	105.368
2148.3	108.643
2147.54	108.625
2146.78	115.189
2146.02	95.4271
2145.26	95.4114
2144.5	101.975
2143.74	111.825
2142.98	118.383
2142.22	95.3487
2141.46	111.77
2140.7	111.751
2139.94	134.737
2139.17	121.572
2138.41	121.552
2137.65	114.963
2136.89	131.364
2136.13	121.492
2135.37	108.34
2134.61	121.452
2133.84	88.6127
2133.08	144.382
2132.32	111.55
2131.56	134.494
2130.8	137.751
2130.03	121.332
2129.27	111.476
2128.51	104.902
2127.75	88.4963
2126.98	108.144
2126.22	121.233
2125.46	78.6246
2124.69	121.193
2123.93	117.898
2123.17	121.153
2122.4	91.6683
2121.64	111.293
2120.88	108.002
2120.11	143.979
2119.35	101.423
2118.58	137.389
2117.82	98.1192
2117.05	127.534
2116.29	101.356
2115.53	134.03
2114.76	134.008
2114	124.182
2113.23	107.825
2112.47	107.807
2111.7	117.588
2110.93	117.569
2110.17	137.141
2109.4	111.001
2108.64	104.454
2107.87	110.964
2107.1	84.8409
2106.34	101.14
2105.57	97.8611
2104.81	107.63
2104.04	123.917
2103.27	117.375
2102.51	101.057
2101.74	143.411
2100.97	110.8
2100.2	81.457
2099.44	127.052
2098.67	123.774
2097.9	120.497
2097.13	113.965
2096.37	139.991
2095.6	152.988
2094.83	74.854
2094.06	113.889
2093.29	107.364
2092.52	146.381
2091.76	130.095
2090.99	126.822
2090.22	94.2878
2089.45	139.783
2088.68	126.759
2087.91	142.987
2087.14	133.216
2086.37	149.437
2085.6	110.435
2084.83	139.645
2084.06	142.869
2083.29	110.38
2082.52	129.838
2081.75	129.816
2080.98	142.775
2080.21	110.308
2079.44	107.046
2078.67	149.19
2077.9	123.224
2077.13	123.204
2076.36	97.2499
2075.58	93.9927
2074.81	123.143
2074.04	110.162
2073.27	116.623
2072.5	113.365
2071.73	129.538
2070.95	116.565
2070.18	161.869
2069.41	129.474
2068.64	122.98
2067.86	126.195
2067.09	132.645
2066.32	119.684
2065.55	93.7912
2064.77	129.346
2064	135.791
2063.23	129.303
2062.45	119.586
2061.68	142.186
2060.9	113.084
2060.13	151.831
2059.36	116.277
2058.58	125.946
2057.81	164.671
2057.03	129.132
2056.26	125.883
2055.48	138.771
2054.71	116.161
2053.93	154.856
2053.16	145.154
2052.38	151.58
2051.61	145.106
2050.83	122.513
2050.06	145.058
2049.28	164.372
2048.51	141.787
2047.73	125.654
2046.95	135.298
2046.18	144.938
2045.4	132.033
2044.63	135.23
2043.85	112.673
2043.07	148.061
2042.3	170.563
2041.52	138.359
2040.74	135.119
2039.96	151.179
2039.19	125.426
2038.41	154.345
2037.63	131.814
2036.85	115.72
2036.08	128.557
2035.3	99.6149
2034.52	128.514
2033.74	141.342
2032.96	163.801
2032.19	150.929
2031.41	131.64
2030.63	157.299
2029.85	115.548
2029.07	128.365
2028.29	115.509
2027.51	144.363
2026.73	141.131
2025.95	109.038
2025.17	134.672
2024.39	125.032
2023.61	121.806
2022.83	144.219
2022.05	150.604
2021.27	128.153
2020.49	115.318
2019.71	150.529
2018.93	160.111
2018.15	115.261
2017.37	198.472
2016.59	121.624
2015.81	140.804
2015.03	188.774
2014.24	121.563
2013.46	118.345
2012.68	153.503
2011.9	131.095
2011.12	153.452
2010.33	147.034
2009.55	124.638
2008.77	162.962
2007.99	134.181
2007.2	150.13
2006.42	137.331
2005.64	166.047
2004.86	98.9729
2004.07	181.952
2003.29	156.389
2002.51	143.599
2001.72	137.194
2000.94	178.641
2000.15	153.096
1999.37	124.37
1998.59	146.668
1997.8	137.08
1997.02	191.243
1996.23	172.09
1995.45	152.943
1994.66	162.475
1993.88	162.448
1993.09	146.498
1992.31	146.473
1991.52	165.551
1990.74	159.157
1989.95	155.948
1989.17	162.286
1988.38	152.715
1987.6	174.957
1986.81	181.288
1986.02	178.078
1985.24	146.254
1984.45	165.304
1983.66	187.525
1982.88	162.071
1982.09	155.689
1981.3	155.663
1980.52	149.285
1979.73	190.545
1978.94	133.359
1978.15	161.909
1977.37	165.056
1976.58	126.945
1975.79	165.001
1975	145.938
1974.22	158.602
1973.43	171.262
1972.64	190.26
1971.85	180.716
1971.06	187.026
1970.27	180.656
1969.48	196.471
1968.69	221.785
1967.91	148.888
1967.12	174.201
1966.33	167.839
1965.54	189.975
1964.75	170.949
1963.96	186.746
1963.17	193.045
1962.38	158.207
1961.59	148.69
1960.8	183.459
1960.01	148.64
1959.22	180.236
1958.43	189.69
1957.63	158.049
1956.84	158.022
1956.05	183.276
1955.26	230.636
1954.47	180.056
1953.68	173.709
1952.89	233.679
1952.09	192.595
1951.3	164.152
1950.51	189.374
1949.72	176.72
1948.93	195.622
1948.13	170.352
1947.34	186.094
1946.55	217.599
1945.76	220.716
1944.96	182.848
1944.17	204.882
1943.38	223.757
1942.58	163.851
1941.79	170.125
1941	182.696
1940.2	214.159
1939.41	182.635
1938.61	176.308
1937.82	214.052
1937.02	169.954
1936.23	204.541
1935.44	198.214
1934.64	179.306
1933.85	166.696
1933.05	226.417
1932.26	235.811
1931.46	220.054
1930.67	223.16
1929.87	188.555
1929.07	210.518
1928.28	188.492
1927.48	248.139
1926.69	194.71
1925.89	213.517
1925.09	222.9
1924.3	204.029
1923.5	172.611
1922.7	210.236
1921.91	200.789
1921.11	219.577
1920.31	169.359
1919.52	206.96
1918.72	194.385
1917.92	228.834
1917.12	191.186
1916.33	175.485
1915.53	250.651
1914.73	213.018
1913.93	178.529
1913.13	216.078
1912.33	228.567
1911.54	228.528
1910.74	181.54
1909.94	200.287
1909.14	237.801
1908.34	209.605
1907.54	200.186
1906.74	259.573
1905.94	187.612
1905.14	253.233
1904.34	250.065
1903.54	231.272
1902.74	206.235
1901.94	240.567
1901.14	259.269
1900.34	221.747
1899.54	206.097
1898.74	227.917
1897.94	255.974
1897.14	202.872
1896.34	234.044
1895.54	246.485
1894.73	246.444
1893.93	271.355
1893.13	249.48
1892.33	205.787
1891.53	236.927
1890.73	261.822
1889.92	215.032
1889.12	205.649
1888.32	255.46
1887.52	249.188
1886.71	255.375
1885.91	230.421
1885.11	230.383
1884.3	252.134
1883.5	242.755
1882.7	245.826
1881.89	248.896
1881.09	242.633
1880.29	255.032
1879.48	251.88
1878.68	276.711
1877.87	223.818
1877.07	186.484
1876.27	242.389
1875.46	264.097
1874.66	279.585
1873.85	214.313
1873.05	251.542
1872.24	260.815
1871.44	266.98
1870.63	260.728
1869.82	304.131
1869.02	310.286
1868.21	276.108
1867.41	229.535
1866.6	263.61
1865.79	235.659
1864.99	266.622
1864.18	254.178
1863.38	244.838
1862.57	250.994
1861.76	294.327
1860.95	269.496
1860.15	238.48
1859.34	244.633
1858.53	266.264
1857.72	241.455
1856.92	272.365
1856.11	275.414
1855.3	253.709
1854.49	278.415
1853.68	256.717
1852.88	228.842
1852.07	234.987
1851.26	287.502
1850.45	293.636
1849.64	259.592
1848.83	268.818
1848.02	262.594
1847.21	315.06
1846.4	284.124
1845.59	314.954
1844.78	271.68
1843.97	317.935
1843.16	293.192
1842.35	243.771
1841.54	274.582
1840.73	271.451
1839.92	274.49
1839.11	296.029
1838.3	292.896
1837.49	286.682
1836.68	268.141
1835.87	268.096
1835.06	320.429
1834.25	255.684
1833.43	304.921
1832.62	280.234
1831.81	286.344
1831	292.453
1830.19	310.872
1829.37	273.89
1828.56	264.613
1827.75	295.333
1826.94	279.904
1826.12	316.761
1825.31	292.109
1824.5	298.208
1823.68	273.568
1822.87	295.035
1822.06	301.13
1821.24	307.224
1820.43	276.455
1819.61	300.978
1818.8	313.21
1817.99	264.035
1817.17	334.593
1816.36	303.845
1815.54	285.382
1814.73	312.947
1813.91	291.421
1813.1	248.433
1812.28	300.522
1811.47	334.198
1810.65	272.831
1809.84	275.85
1809.02	266.611
1808.2	297.205
1807.39	321.663
1806.57	300.168
1805.75	272.556
1804.94	293.943
1804.12	315.323
1803.3	260.174
1802.49	327.458
1801.67	330.463
1800.85	315.111
1800.04	318.116
1799.22	305.829
1798.4	354.702
1797.58	317.955
1796.77	296.504
1795.95	327.017
1795.13	256.68
1794.31	339.127
1793.49	351.289
1792.67	326.796
1791.86	332.848
1791.04	283.942
1790.22	344.946
1789.4	296.055
1788.58	311.263
1787.76	292.903
1786.94	317.259
1786.12	305.005
1785.3	332.399
1784.48	301.853
1783.66	335.335
1782.84	298.703
1782.02	319.985
1781.2	313.837
1780.38	332.062
1779.56	335.052
1778.74	304.542
1777.92	307.535
1777.1	325.749
1776.27	365.265
1775.45	343.899
1774.63	352.97
1773.81	301.191
1772.99	313.307
1772.17	319.337
1771.34	352.731
1770.52	322.269
1769.7	340.453
1768.88	346.474
1768.05	325.144
1767.23	370.663
1766.41	361.487
1765.58	343.202
1764.76	370.475
1763.94	434.171
1763.11	406.777
1762.29	403.673
1761.47	348.982
1760.64	288.24
1759.82	360.998
1758.99	348.805
1758.17	409.397
1757.35	351.719
1756.52	348.627
1755.7	351.6
1754.87	360.632
1754.05	333.3
1753.22	287.802
1752.4	381.651
1751.57	299.818
1750.74	363.354
1749.92	372.375
1749.09	405.608
1748.27	335.932
1747.44	347.979
1746.61	378.174
1745.79	326.687
1744.96	396.192
1744.13	341.695
1743.31	380.941
1742.48	356.694
1741.65	365.7
1740.83	362.617
1740	350.47
1739.17	419.889
1738.34	398.676
1737.51	368.41
1736.69	368.348
1735.86	383.379
1735.03	371.241
1734.2	350.054
1733.37	395.253
1732.54	380.103
1731.72	367.974
1730.89	379.974
1730.06	398
1729.23	406.977
1728.4	358.682
1727.57	421.907
1726.74	370.612
1725.91	427.789
1725.08	388.559
1724.25	367.412
1723.42	412.516
1722.59	388.361
1721.76	400.336
1720.93	415.315
1720.1	382.146
1719.27	385.089
1718.43	363.968
1717.6	378.944
1716.77	396.921
1715.94	420.906
1715.11	405.804
1714.28	393.714
1713.45	414.681
1712.61	405.598
1711.78	381.498
1710.95	393.446
1710.12	402.388
1709.28	387.308
1708.45	396.248
1707.62	444.202
1706.78	384.11
1705.95	432.05
1705.12	407.978
1704.28	419.906
1703.45	392.845
1702.62	449.746
1701.78	440.677
1700.95	401.637
1700.11	410.559
1699.28	434.459
1698.45	410.419
1697.61	413.345
1696.78	437.233
1695.94	401.227
1695.11	419.122
1694.27	475.921
1693.44	430.95
1692.6	424.892
1691.76	433.795
1690.93	427.739
1690.09	415.703
1689.26	433.574
1688.42	409.583
1687.58	454.35
1686.75	487.148
1685.91	457.184
1685.07	448.143
1684.24	439.106
1683.4	501.749
1682.56	427.012
1681.73	471.723
1680.89	444.777
1680.05	426.794
1679.21	432.689
1678.37	459.467
1677.54	423.593
1676.7	444.398
1675.86	450.287
1675.02	414.432
1674.18	488.887
1673.34	470.92
1672.51	530.44
1671.67	479.698
1670.83	482.596
1669.99	485.492
1669.15	491.365
1668.31	506.169
1667.47	512.036
1666.63	461.35
1665.79	514.838
1664.95	514.75
1664.11	490.863
1663.27	493.754
1662.43	508.539
1661.59	544.133
1660.75	526.203
1659.9	552.865
1659.06	591.405
1658.22	546.734
1657.38	510.99
1656.54	597.043
1655.7	579.122
1654.85	537.453
1654.01	567.05
1653.17	558.048
1652.33	552.017
1651.49	516.315
1650.64	560.729
1649.8	530.97
1648.96	533.845
1648.11	530.789
1647.27	495.121
1646.43	548.394
1645.58	489.024
1644.74	497.831
1643.9	465.155
1643.05	518.397
1642.21	515.346
1641.36	458.995
1640.52	491.484
1639.68	547.645
1638.83	514.995
1637.99	479.396
1637.14	547.365
1636.3	538.396
1635.45	517.601
1634.61	458.368
1633.76	502.64
1632.91	487.773
1632.07	472.911
1631.22	523.069
1630.38	525.934
1629.53	576.065
1628.68	437.144
1627.84	534.524
1626.99	516.717
1626.14	493.011
1625.3	501.782
1624.45	525.305
1623.6	469.153
1622.75	545.777
1621.91	516.187
1621.06	468.913
1620.21	518.959
1619.36	474.648
1618.52	509.939
1617.67	486.275
1616.82	489.138
1615.97	506.731
1615.12	468.351
1614.27	427.04
1613.42	488.803
1612.57	515.217
1611.72	518.072
1610.88	473.837
1610.03	461.986
1609.18	476.617
1608.33	523.601
1607.48	520.57
1606.63	499.897
1605.78	473.351
1604.93	464.451
1604.07	479.067
1603.22	431.968
1602.37	478.903
1601.52	470.008
1600.67	396.501
1599.82	525.641
1598.97	484.447
1598.12	472.621
1597.26	484.281
1596.41	493.001
1595.56	463.577
1594.71	463.497
1593.86	469.284
1593	442.811
1592.15	439.803
1591.3	471.974
1590.45	507.065
1589.59	477.673
1588.74	462.941
1587.89	439.426
1587.03	465.712
1586.18	512.488
1585.32	494.832
1584.47	535.732
1583.62	503.443
1582.76	453.606
1581.91	427.195
1581.05	465.153
1580.2	473.848
1579.34	459.144
1578.49	473.685
1577.63	458.987
1576.78	520.291
1575.92	508.511
1575.07	540.566
1574.21	452.829
1573.36	449.83
1572.5	470.196
1571.64	505.155
1570.79	522.585
1569.93	507.901
1569.07	536.998
1568.22	440.613
1567.36	545.566
1566.5	481.299
1565.65	522.047
1564.79	498.63
1563.93	516.037
1563.07	542.183
1562.22	512.945
1561.36	533.255
1560.5	498.202
1559.64	501.029
1558.78	439.781
1557.92	585.304
1557.07	509.505
1556.21	474.486
1555.35	520.972
1554.49	541.252
1553.63	535.34
1552.77	482.887
1551.91	485.712
1551.05	503.076
1550.19	514.62
1549.33	529.066
1548.47	499.911
1547.61	528.884
1546.75	546.226
1545.89	511.272
1545.03	458.904
1544.17	543.04
1543.31	513.912
1542.45	539.95
1541.58	548.565
1540.72	516.549
1539.86	472.938
1539	551.183
1538.14	510.481
1537.28	530.693
1536.41	461.015
1535.55	513.117
1534.69	536.216
1533.83	556.41
1532.96	512.852
1532.1	541.733
1531.24	573.501
1530.37	509.691
1529.51	541.453
1528.65	555.835
1527.78	576.001
1526.92	515.128
1526.05	515.039
1525.19	514.95
1524.33	538.002
1523.46	558.153
1522.6	569.623
1521.73	529.051
1520.87	549.193
1520	531.758
1519.14	531.667
1518.27	592.244
1517.41	545.926
1516.54	519.84
1515.67	560.175
1514.81	568.74
1513.94	571.528
1513.08	545.455
1512.21	525.163
1511.34	568.347
1510.48	576.903
1509.61	533.543
1508.74	524.801
1507.88	539.125
1507.01	533.267
1506.14	593.698
1505.27	564.78
1504.41	553.158
1503.54	567.466
1502.67	576.008
1501.8	541.354
1500.93	523.986
1500.06	575.71
1499.2	578.488
1498.33	607.164
1497.46	546.641
1496.59	612.707
1495.72	583.841
1494.85	598.118
1493.98	583.639
1493.11	569.166
1492.24	640.919
1491.37	609.199
1490.5	609.094
1489.63	631.97
1488.76	551.442
1487.89	620.265
1487.02	574.22
1486.15	608.568
1485.28	579.762
1484.41	665.75
1483.54	634.075
1482.66	656.914
1481.79	656.801
1480.92	650.952
1480.05	699.58
1479.18	644.993
1478.3	650.614
1477.43	679.158
1476.56	750.67
1475.69	678.923
1474.81	733.225
1473.94	756.007
1473.07	795.961
1472.19	755.746
1471.32	781.375
1470.45	832.75
1469.57	806.855
1468.7	866.79
1467.83	926.704
1466.95	986.598
1466.08	1103.65
1465.2	1395.05
1464.33	1054.68
1463.45	960.195
1462.58	1008.6
1461.7	985.574
1460.83	939.703
1459.95	968.098
1459.08	1073.57
1458.2	1033.42
1457.32	1067.49
1456.45	1041.63
1455.57	1069.98
1454.7	1055.53
1453.82	1081.02
1452.94	1026.65
1452.07	958.036
1451.19	994.931
1450.31	1006.16
1449.43	1031.63
1448.56	957.372
1447.68	1005.64
1446.8	1113.7
1445.92	1048.01
1445.05	1107.62
1444.17	1127.35
1443.29	1147.08
1442.41	1198.11
1441.53	1360.09
1440.65	1339.94
1439.77	1396.59
1438.9	1501.58
1438.02	1430.23
1437.14	1375.97
1436.26	1279.09
1435.38	1139.61
1434.5	1054.17
1433.62	1028.42
1432.74	951.548
1431.86	925.824
1430.98	874.553
1430.1	826.139
1429.22	845.864
1428.33	885.449
1427.45	873.946
1426.57	828.402
1425.69	848.114
1424.81	873.491
1423.93	901.694
1423.05	893.033
1422.16	958.072
1421.28	884.22
1420.4	835.897
1419.52	801.755
1418.63	787.453
1417.75	792.98
1416.87	823.99
1415.99	787.042
1415.1	781.244
1414.22	775.448
1413.34	778.143
1412.45	752.546
1411.57	789.187
1410.68	766.425
1409.8	783.258
1408.92	749.196
1408.03	766.026
1407.15	700.891
1406.26	720.548
1405.38	680.871
1404.49	697.7
1403.61	683.458
1402.72	694.634
1401.84	686.044
1400.95	680.279
1400.06	671.694
1399.18	626.429
1398.29	637.605
1397.41	685.447
1396.52	685.328
1395.63	673.929
1394.75	707.644
1393.86	707.521
1392.97	676.396
1392.09	704.457
1391.2	712.786
1390.31	692.944
1389.42	737.885
1388.54	746.204
1387.65	709.474
1386.76	760.019
1385.87	740.186
1384.98	700.662
1384.09	745.555
1383.21	722.922
1382.32	762.17
1381.43	672.055
1380.54	716.921
1379.65	719.607
1378.76	815.038
1377.87	702.496
1376.98	738.897
1376.09	789.331
1375.2	786.385
1374.31	724.471
1373.42	696.269
1372.53	732.64
1371.64	813.902
1370.75	808.148
1369.86	768.729
1368.96	816.282
1368.07	785.289
1367.18	793.564
1366.29	807.444
1365.4	759.65
1364.51	728.688
1363.61	756.583
1362.72	736.839
1361.83	764.722
1360.94	730.981
1360.04	753.255
1359.15	767.122
1358.26	733.397
1357.36	736.068
1356.47	780.712
1355.58	772.182
1354.68	707.71
1353.79	783.1
1352.9	768.982
1352	712.931
1351.11	735.169
1350.21	796.527
1349.32	788.005
1348.42	863.302
1347.53	801.697
1346.63	742.906
1345.74	798.624
1344.84	770.566
1343.95	834.634
1343.05	764.715
1342.15	725.515
1341.26	834.196
1340.36	761.525
1339.47	792.07
1338.57	744.528
1337.67	828.038
1336.78	780.505
1335.88	838.896
1334.98	802.525
1334.08	794.026
1333.19	782.745
1332.29	782.608
1331.39	782.471
1330.49	865.858
1329.6	801.683
1328.7	821.025
1327.8	815.316
1326.9	820.738
1326	837.284
1325.1	784.295
1324.2	773.035
1323.3	828.504
1322.4	761.646
1321.51	842.11
1320.61	875.308
1319.71	833.481
1318.81	855.557
1317.91	835.967
1317.01	877.472
1316.1	799.582
1315.2	827.2
1314.3	802.077
1313.4	810.261
1312.5	873.93
1311.6	832.169
1310.7	848.663
1309.8	898.427
1308.9	851.139
1307.99	856.533
1307.09	870.241
1306.19	936.592
1305.29	977.985
1304.38	916.874
1303.48	1030.26
1302.58	1013.47
1301.68	1082.51
1300.77	1118.3
1299.87	1173.46
1298.97	1278.4
1298.06	1341.81
1297.16	1330.51
1296.25	1302.62
1295.35	1224.97
1294.45	1103.11
1293.54	1036.57
1292.64	978.352
1291.73	964.364
1290.83	817.77
1289.92	903.256
1289.02	800.913
1288.11	867.043
1287.21	825.479
1286.3	797.731
1285.39	797.591
1284.49	769.857
1283.58	764.205
1282.68	714.42
1281.77	761.178
1280.86	686.595
1279.96	766.425
1279.05	752.508
1278.14	738.597
1277.23	702.646
1276.33	724.562
1275.42	721.68
1274.51	666.473
1273.6	658.096
1272.7	691.017
1271.79	644.102
1270.88	685.27
1269.97	685.149
1269.06	610.749
1268.15	621.644
1267.24	607.784
1266.33	673.669
1265.43	604.821
1264.52	632.202
1263.61	632.091
1262.7	596.259
1261.79	557.693
1260.88	642.745
1259.97	593.199
1259.06	598.586
1258.14	609.462
1257.23	628.569
1256.32	565.338
1255.41	598.165
1254.5	576.113
1253.59	586.983
1252.68	556.713
1251.77	595.002
1250.85	564.742
1249.94	567.383
1249.03	539.878
1248.12	580.884
1247.2	556.126
1246.29	577.94
1245.38	558.668
1244.47	585.951
1243.55	528.358
1242.64	547.425
1241.73	596.588
1240.81	582.802
1239.9	582.7
1238.98	577.127
1238.07	505.923
1237.16	527.707
1236.24	492.076
1235.33	494.722
1234.41	475.506
1233.5	497.28
1232.58	475.338
1231.67	584.508
1230.75	532.519
1229.84	496.93
1228.92	480.463
1228	537.696
1227.09	477.565
1226.17	518.407
1225.25	493.764
1224.34	474.585
1223.42	493.59
1222.5	488.05
1221.59	496.142
1220.67	485.152
1219.75	523.218
1218.84	490.431
1217.92	512.137
1217	460.297
1216.08	476.555
1215.16	481.917
1214.25	476.387
1213.33	487.19
1212.41	525.202
1211.49	484.297
1210.57	552.219
1209.65	446.049
1208.73	511.234
1207.81	483.956
1206.89	483.87
1205.97	467.477
1205.05	535.33
1204.13	499.916
1203.21	450.931
1202.29	469.863
1201.37	445.341
1200.45	472.412
1199.53	513.047
1198.61	453.247
1197.69	512.866
1196.77	472.079
1195.84	423.168
1194.92	461.063
1194	442
1193.08	501.568
1192.16	468.951
1191.23	452.607
1190.31	428.139
1189.39	536.434
1188.46	438.823
1187.54	536.245
1186.62	471.162
1185.69	454.835
1184.77	479.116
1183.85	500.682
1182.92	438.358
1182	473.451
1181.08	495.007
1180.15	503.033
1179.23	486.72
1178.3	483.93
1177.38	510.875
1176.45	494.569
1175.53	510.694
1174.6	529.515
1173.68	513.215
1172.75	526.627
1171.82	515.733
1170.9	507.543
1169.97	502.055
1169.05	485.773
1168.12	482.989
1167.19	488.299
1166.27	496.305
1165.34	498.913
1164.41	466.469
1163.48	504.129
1162.56	517.516
1161.63	471.611
1160.7	449.972
1159.77	498.384
1158.84	482.134
1157.92	514.365
1156.99	500.811
1156.06	495.338
1155.13	481.793
1154.2	492.472
1153.27	473.55
1152.34	505.748
1151.41	476.072
1150.48	529.771
1149.55	508.168
1148.62	505.389
1147.69	507.988
1146.76	421.904
1145.83	526.615
1144.9	529.208
1143.97	478.083
1143.04	588.099
1142.11	502.078
1141.18	496.62
1140.25	536.791
1139.32	488.393
1138.38	509.77
1137.45	525.775
1136.52	523
1135.59	597.991
1134.65	616.653
1133.72	705.004
1132.79	755.801
1131.86	876.252
1130.92	908.247
1129.99	900.05
1129.06	934.707
1128.12	816.719
1127.19	797.833
1126.26	786.984
1125.32	679.791
1124.39	639.532
1123.45	676.874
1122.52	617.906
1121.58	561.633
1120.65	636.404
1119.71	649.658
1118.78	628.159
1117.84	609.339
1116.91	582.51
1115.97	582.407
1115.03	574.29
1114.1	571.517
1113.16	531.363
1112.23	541.947
1111.29	557.866
1110.35	536.417
1109.42	584.351
1108.48	568.24
1107.54	605.481
1106.6	605.374
1105.67	637.263
1104.73	637.149
1103.79	621.043
1102.85	634.258
1101.91	623.487
1100.98	636.696
1100.04	609.947
1099.1	633.806
1098.16	609.73
1097.22	572.352
1096.28	574.912
1095.34	529.57
1094.4	516.172
1093.46	585.246
1092.52	561.204
1091.58	515.897
1090.64	499.852
1089.7	542.296
1088.76	528.91
1087.82	523.501
1086.88	518.094
1085.94	491.438
1085	536.502
1084.06	520.473
1083.11	517.725
1082.17	512.324
1081.23	528.157
1080.29	541.331
1079.35	522.663
1078.4	517.264
1077.46	548.998
1076.52	517.08
1075.57	527.593
1074.63	580.513
1073.69	561.858
1072.74	593.555
1071.8	572.255
1070.86	601.29
1069.91	640.909
1068.97	667.274
1068.02	680.392
1067.08	783.502
1066.14	823.06
1065.19	955.214
1064.25	925.943
1063.3	941.648
1062.36	822.473
1061.41	801.173
1060.46	740.226
1059.52	666.084
1058.57	615.754
1057.63	620.928
1056.68	573.265
1055.73	493.924
1054.79	528.166
1053.84	525.432
1052.89	491.019
1051.95	493.571
1051	506.678
1050.05	480.202
1049.1	474.841
1048.16	419.368
1047.21	477.308
1046.26	458.767
1045.31	445.504
1044.36	429.611
1043.41	405.817
1042.46	447.9
1041.52	458.357
1040.57	455.641
1039.62	479.259
1038.67	442.314
1037.72	476.456
1036.77	452.684
1035.82	418.394
1034.87	463.046
1033.92	476.115
1032.97	431.32
1032.02	452.279
1031.07	478.489
1030.11	420.574
1029.16	454.665
1028.21	433.562
1027.26	472.892
1026.31	407.14
1025.36	435.956
1024.4	412.246
1023.45	462.053
1022.5	448.846
1021.55	448.765
1020.59	438.189
1019.64	430.241
1018.69	443.278
1017.73	416.974
1016.78	401.168
1015.83	385.367
1014.87	419.371
1013.92	385.229
1012.97	419.221
1012.01	369.373
1011.06	440.025
1010.1	405.902
1009.15	434.63
1008.19	439.788
1007.24	421.388
1006.28	416.079
1005.33	397.69
1004.37	387.155
1003.41	405.393
1002.46	407.936
1001.5	389.561
1000.55	402.561
999.589	365.899
998.633	386.739
997.676	428.471
996.719	383.988
995.761	334.297
994.804	378.628
993.846	391.613
992.889	401.984
991.931	396.693
990.973	409.668
990.014	404.377
989.056	406.913
988.097	383.368
987.139	362.44
986.18	383.231
985.221	372.736
984.261	354.426
983.302	380.419
982.342	380.35
981.382	398.515
980.422	395.839
979.462	380.146
978.502	393.094
977.541	390.42
976.581	392.953
975.62	385.076
974.659	377.203
973.698	371.933
972.736	410.873
971.775	364
970.813	434.122
969.851	387.26
968.889	418.374
967.927	350.748
966.964	379.259
966.002	366.205
965.039	425.864
964.076	410.209
963.113	394.561
962.15	423.039
961.186	451.506
960.223	425.481
959.259	448.75
958.295	422.734
957.331	466.739
956.367	438.138
955.402	432.875
954.437	463.896
953.473	401.625
952.508	401.553
951.542	422.202
950.577	409.178
949.611	424.64
948.646	401.264
947.68	403.78
946.714	408.883
945.748	367.411
944.781	385.454
943.815	369.865
942.848	457.723
941.881	367.147
940.914	398.101
939.947	320.491
938.979	354.028
938.012	421.14
937.044	387.482
936.076	387.412
935.108	397.671
934.139	400.182
933.171	397.528
932.202	423.265
931.233	425.77
930.264	379.254
929.295	368.867
928.326	446.172
927.356	399.677
926.387	435.698
925.417	394.378
924.447	394.307
923.476	399.389
922.506	430.232
921.535	406.972
920.565	412.049
919.594	468.622
918.623	450.516
917.651	453.009
916.68	506.97
915.708	494.013
914.737	416.749
913.765	486.119
912.792	475.745
911.82	511.655
910.848	542.411
909.875	542.313
908.902	552.494
907.929	516.424
906.956	524.037
905.982	513.669
905.009	528.984
904.035	469.838
903.061	533.927
902.087	538.963
901.113	536.3
900.138	518.244
899.164	530.976
898.189	577.044
897.214	600.017
896.239	566.58
895.263	525.466
894.288	589.441
893.312	617.52
892.336	573.856
891.36	525.086
890.384	537.796
889.408	509.534
888.431	512.001
887.454	486.313
886.478	463.194
885.5	481.02
884.523	483.492
883.546	493.635
882.568	506.332
881.59	455.105
880.612	455.022
879.634	462.608
878.656	465.079
877.677	472.66
876.699	418.931
875.72	467.381
874.741	482.618
873.762	510.614
872.782	459.469
871.803	467.043
870.823	484.82
869.843	469.425
868.863	492.297
867.883	510.06
866.902	494.668
865.922	479.282
864.941	469
863.96	491.851
862.979	456.09
861.997	501.863
861.016	445.737
860.034	491.495
859.052	486.314
858.07	465.86
857.088	501.409
856.105	519.131
855.123	457.974
854.14	546.925
853.157	498.502
852.174	521.298
851.191	480.524
850.207	452.475
849.224	439.685
848.24	442.147
847.256	462.391
846.272	454.687
845.287	482.541
844.303	457.061
843.318	459.517
842.333	446.742
841.348	449.199
840.363	436.431
839.377	459.184
838.392	448.955
837.406	481.841
836.42	491.896
835.434	461.386
834.447	441.025
833.461	446.013
832.474	418.061
831.487	453.451
830.5	466.033
829.513	440.625
828.525	417.758
827.538	473.373
826.55	447.978
825.562	445.366
824.574	425.045
823.586	435.086
822.597	450.181
821.609	470.329
820.62	439.905
819.631	389.27
818.641	434.69
817.652	381.548
816.662	432.006
815.673	419.298
814.683	376.29
813.693	378.746
812.702	454.413
811.712	383.657
810.721	413.87
809.73	421.364
808.739	403.629
807.748	390.944
806.757	385.83
805.765	519.389
804.774	398.293
803.782	415.864
802.79	425.868
801.797	367.842
800.805	408.08
799.812	380.301
798.819	375.196
797.826	397.786
796.833	385.128
795.84	390.091
794.846	379.955
793.853	374.855
792.859	352.148
791.865	399.867
790.87	422.424
789.876	387.152
788.881	407.189
787.887	369.419
786.892	381.915
785.896	399.43
784.901	359.171
783.906	399.285
782.91	394.19
781.914	374.036
780.918	416.635
779.922	414.05
778.925	368.814
777.929	393.831
776.932	383.727
775.935	416.256
774.938	406.152
773.94	411.091
772.943	395.979
771.945	355.815
770.947	385.813
769.949	365.704
768.951	405.707
767.952	425.665
766.954	388.035
765.955	392.97
764.956	382.889
763.957	457.881
762.957	390.254
761.958	380.178
760.958	362.603
759.958	400.041
758.958	392.469
757.958	412.392
756.957	402.321
755.957	462.21
754.956	422.158
753.955	392.111
752.954	429.495
751.952	391.967
750.951	364.438
749.949	386.833
748.947	424.191
747.945	396.671
746.943	404.081
745.941	426.452
744.938	438.841
743.935	381.423
742.932	368.891
741.929	423.649
740.925	358.79
739.922	418.511
738.918	363.64
737.914	415.868
736.91	418.282
735.906	385.844
734.901	487.817
733.897	410.587
732.892	380.657
731.887	412.925
730.882	422.797
729.876	412.774
728.871	417.67
727.865	400.194
726.859	402.606
725.853	402.533
724.847	412.396
723.84	432.192
722.833	422.179
721.826	407.204
720.819	409.612
719.812	441.803
718.805	416.907
717.797	446.604
716.789	386.986
715.781	391.875
714.773	391.804
713.765	416.525
712.756	453.632
711.748	451.07
710.739	443.554
709.73	408.787
708.72	448.345
707.711	435.88
706.701	467.99
705.691	438.196
704.681	440.591
703.671	423.187
702.661	418.161
701.65	383.45
700.64	375.959
699.629	432.768
698.618	403.019
697.606	427.666
696.595	430.059
695.583	481.874
694.571	390.37
693.559	407.59
692.547	461.851
691.535	409.91
690.522	454.275
689.509	436.912
688.496	404.748
687.483	436.752
686.47	409.534
685.456	421.792
684.442	404.451
683.429	411.774
682.414	379.65
681.4	411.623
680.386	428.798
679.371	431.183
678.356	401.543
677.341	418.71
676.326	426.021
675.311	440.715
674.295	443.096
673.279	420.864
672.263	420.786
671.247	450.232
670.231	464.909
669.214	427.933
668.198	464.738
667.181	457.277
666.164	454.735
665.146	410.415
664.129	434.911
663.111	454.484
662.093	442.12
661.075	427.304
660.057	422.314
659.039	432.056
658.02	441.794
657.001	441.713
655.983	434.271
654.963	434.192
653.944	439.017
652.925	478.171
651.905	431.5
650.885	433.872
649.865	458.3
648.845	423.911
647.824	438.533
646.804	428.654
645.783	440.82
644.762	482.364
643.741	460.243
642.719	433.234
641.698	408.682
640.676	428.181
639.654	430.548
638.632	442.698
637.609	427.944
636.587	442.535
635.564	452.232
634.541	444.816
633.518	398.306
632.495	432.437
631.471	439.685
630.448	451.815
629.424	437.081
628.4	427.235
627.376	507.706
626.351	417.316
625.327	453.839
624.302	412.283
623.277	451.232
622.252	456.027
621.226	455.942
620.201	453.421
619.175	504.52
618.149	475.185
617.123	450.733
616.097	409.239
615.07	455.438
614.044	448.049
613.017	438.228
611.99	425.976
610.963	489.174
609.935	469.618
608.908	450.069
607.88	476.741
606.852	420.72
605.824	440.094
604.795	488.632
603.767	500.695
602.738	452
601.709	454.347
600.68	468.838
599.65	429.891
598.621	444.382
597.591	483.145
596.561	473.346
595.531	419.866
594.501	436.774
593.47	490.067
592.44	480.274
591.409	458.358
590.378	480.096
589.347	470.31
588.315	489.614
587.284	431.362
586.252	450.666
585.22	520.835
584.188	460.188
583.155	489.162
582.123	484.229
581.09	474.457
580.057	457.427
579.024	493.639
577.99	527.419
576.957	469.268
575.923	466.762
574.889	512.618
573.855	495.601
572.821	473.755
571.786	505.084
570.752	517.071
569.717	507.313
568.682	497.557
567.647	468.487
566.611	521.518
565.576	535.905
564.54	509.257
563.504	472.966
562.467	470.466
561.431	504.149
560.394	532.997
559.358	491.906
558.321	489.404
557.284	474.851
556.246	479.583
555.209	501.18
554.171	501.087
553.133	462.456
552.095	445.513
551.057	522.478
550.018	467.014
548.979	510.25
547.94	502.936
546.901	507.655
545.862	459.451
544.823	507.467
543.783	545.846
542.743	495.258
541.703	497.57
540.663	552.753
539.622	531.025
538.582	487.683
537.541	477.985
536.5	523.525
535.459	516.224
534.417	540.135
533.376	535.234
532.334	547.133
531.292	513.442
530.25	513.347
529.207	508.455
528.165	501.167
527.122	491.484
526.079	548.921
525.036	510.474
523.992	488.814
522.949	522.263
521.905	505.399
520.861	495.726
519.817	510
518.773	490.754
517.728	519.384
516.684	550.397
515.639	533.547
514.594	526.271
513.548	499.865
512.503	538.032
511.457	569.012
510.411	566.516
509.365	504.273
508.319	592.59
507.273	506.475
506.226	520.712
505.179	520.615
504.132	501.417
503.085	551.456
502.037	541.806
500.99	560.796
499.942	541.604
498.894	500.95
497.846	572.408
496.797	553.225
495.749	531.665
494.7	553.019
493.651	529.084
492.602	543.282
491.552	526.504
490.503	535.934
489.453	569.175
488.403	547.64
487.353	542.776
486.303	537.915
485.252	535.435
484.201	549.611
483.15	554.266
482.099	516.109
481.048	577.839
479.996	475.499
478.945	556.231
477.893	551.374
476.841	503.748
475.788	546.417
474.736	565.317
473.683	565.212
472.63	524.742
471.577	541.262
470.524	553.028
469.47	571.91
468.417	559.94
467.363	524.253
466.309	536.014
465.254	521.686
464.2	547.668
463.145	573.64
462.09	587.753
461.035	566.318
459.98	578.058
458.925	627.691
457.869	558.896
456.813	575.366
455.757	596.565
454.701	594.086
453.644	565.578
452.588	582.035
451.531	591.388
450.474	586.548
449.417	662.108
448.359	546.137
447.302	621.676
446.244	574.293
445.186	526.928
444.128	585.891
443.069	583.419
442.011	576.225
440.952	618.618
439.893	604.339
438.834	564.101
437.774	597.033
436.715	566.25
435.655	592.092
434.595	629.717
433.535	582.439
432.474	598.833
431.414	615.221
430.353	633.96
429.292	596.141
428.231	553.624
427.169	610.05
426.108	605.226
425.046	579.213
423.984	572.043
422.922	553.107
421.859	618.893
420.797	614.072
419.734	635.128
418.671	580.915
417.608	601.97
416.544	639.473
415.481	641.704
414.417	608.682
413.353	648.513
412.289	599.057
411.225	674.107
410.16	610.575
409.095	640.983
408.03	647.906
406.965	600.843
405.9	642.97
404.834	612.349
403.768	654.458
402.702	687.169
401.636	729.247
400.57	684.567
399.503	689.127
398.436	700.715
397.37	677.153
396.302	681.711
395.235	697.979
394.167	662.722
393.1	655.573
392.032	664.814
390.964	652.987
389.895	657.545
388.827	671.459
387.758	638.585
386.689	671.207
385.62	652.375
384.55	682.644
383.481	717.577
382.411	689.399
381.341	743.009
380.271	661.107
379.2	705.36
378.13	728.58
377.059	707.43
375.988	697.96
374.917	742.173
373.846	714.032
372.774	713.898
371.702	695.104
370.63	694.973
369.558	678.521
368.486	715.693
367.413	715.559
366.34	706.103
365.267	682.671
364.194	696.52
363.121	696.389
362.047	719.544
360.973	712.424
359.899	707.635
358.825	681.902
357.751	639.89
356.676	681.645
355.601	653.605
354.526	720.923
353.451	678.936
352.376	692.756
351.3	669.383
350.224	652.991
349.148	713.276
348.072	699.204
346.996	713.007
345.919	710.551
344.842	719.704
343.765	677.787
342.688	712.471
341.61	751.782
340.533	733.082
339.455	735.263
338.377	774.548
337.299	732.668
336.22	739.484
335.141	764.84
334.063	769.33
332.984	711.265
331.904	755.142
330.825	680.89
329.745	696.97
328.665	717.674
327.585	699.022
326.505	710.461
325.424	687.19
324.344	714.82
323.263	784.073
322.182	733.051
321.1	744.473
320.019	732.774
318.937	709.525
317.855	746.362
316.773	702.326
315.691	734.532
314.608	720.537
313.526	757.345
312.443	754.893
311.359	727.054
310.276	798.454
309.193	761.388
308.109	708.188
307.025	738.037
305.941	772.487
304.856	717.009
303.772	726.094
302.687	723.652
301.602	751.166
300.517	790.188
299.431	803.859
298.346	757.649
297.26	785.136
296.174	752.759
295.088	784.839
294.001	763.981
292.915	761.536
291.828	736.089
290.741	795.746
289.654	784.098
288.566	797.744
287.479	809.086
286.391	767.567
285.303	755.934
284.214	787.952
283.126	787.803
282.037	817.507
280.948	808.169
279.859	791.948
278.77	780.323
277.681	814.595
276.591	835.089
275.501	800.524
274.411	809.546
273.321	781.878
272.23	793.193
271.139	811.379
270.048	829.558
268.957	836.275
267.866	822.372
266.774	810.765
265.682	870.148
264.59	812.748
263.498	881.264
262.406	874.231
261.313	828.303
260.221	867.037
259.128	896.608
258.034	917.019
256.941	905.414
255.847	870.953
254.753	898.214
253.659	870.623
252.565	897.874
251.471	854.303
250.376	842.723
249.281	892.797
248.186	958.833
247.091	903.871
245.995	940.213
244.9	844.206
243.804	855.452
242.708	903.186
241.611	893.894
240.515	932.483
239.418	898.114
238.321	856.921
237.224	845.365
236.126	959.114
235.029	986.265
233.931	883.599
232.833	956.291
231.735	967.492
230.636	885.372
229.538	923.889
228.439	951.016
227.34	941.736
226.241	943.832
225.141	932.283
224.042	982.122
222.942	893.289
221.842	970.386
220.741	1002.01
219.641	951.844
218.54	969.834
217.439	956.025
216.338	955.843
215.237	928.422
214.135	971.367
213.034	962.106
211.932	1000.49
210.829	1002.57
209.727	1074.95
208.624	1011.26
207.522	1076.81
206.419	1024.47
205.315	963.093
204.212	981.035
203.108	1051.07
202.005	960.279
200.9	980.476
199.796	1052.74
198.692	959.732
197.587	984.443
196.482	1058.92
195.377	1045.15
194.272	990.667
193.166	1053.8
192.06	1058.12
190.955	1064.7
189.848	1050.94
188.742	1077.85
187.635	1046.02
186.529	1043.56
185.422	1061.43
184.314	1068
183.207	1024.9
182.099	1128.53
180.992	1202.79
179.883	1128.1
178.775	1150.45
177.667	1152.48
176.558	1181.58
175.449	1147.54
174.34	1154.08
173.231	1183.16
172.121	1221.24
171.011	1155.67
169.901	1229.78
168.791	1189.01
167.681	1247.32
166.57	1283.1
165.46	1224.34
164.349	1266.86
163.237	1277.87
162.126	1248.38
161.014	1342.6
159.902	1313.11
158.79	1324.1
157.678	1278.9
156.565	1332.59
155.453	1269.42
154.34	1242.23
153.227	1233
152.113	1288.91
151	1295.4
149.886	1248.01
148.772	1344.27
147.658	1341.77
146.543	1215.89
145.429	1247.06
144.314	1287.19
143.199	1255.55
142.084	1311.35
140.968	1311.1
139.853	1295.17
138.737	1308.36
137.621	1368.59
136.504	1332.5
135.388	1356.87
134.271	1417.05
133.154	1441.4
132.037	1474.7
130.919	1393.87
129.802	1447.29
128.684	1426.88
127.566	1457.92
126.448	1471.05
125.329	1475.24
124.211	1423.56
123.092	1499.25
121.973	1463.22
120.853	1574.62
119.734	1565.39
118.614	1544.99
117.494	1638.45
116.374	1631.44
115.253	1615.51
114.133	1686.59
113.012	1561.36
111.891	1650.27
110.77	1707.92
109.648	1560.46
108.527	1566.85
107.405	1506.39
106.283	1519.47
105.16	1532.54
104.038	1436.48
102.915	1413.94
101.792	1351.33
100.669	1391.14
