3201.19	25.2672
3200.6	25.2672
3200	8.42114
3199.41	33.6795
3198.81	16.8372
3198.22	29.4606
3197.63	8.41605
3197.03	25.2443
3196.44	33.654
3195.84	46.2673
3195.25	42.0548
3194.65	29.4339
3194.06	12.6126
3193.47	21.0179
3192.87	0
3192.28	21.0115
3191.68	21.0084
3191.09	21.0052
3190.49	21.002
3189.9	12.5993
3189.3	25.1948
3188.7	50.382
3188.11	4.19786
3187.51	50.3668
3186.92	25.1796
3186.32	50.3515
3185.73	37.7579
3185.13	20.9735
3184.53	33.5525
3183.94	37.7408
3183.34	33.5423
3182.74	16.7686
3182.15	33.5322
3181.55	16.7635
3180.96	4.19025
3180.36	29.3273
3179.76	58.6458
3179.16	25.1301
3178.57	33.5017
3177.97	16.7483
3177.37	29.3052
3176.78	54.4156
3176.18	12.5556
3175.58	29.2919
3174.98	50.207
3174.39	50.1994
3173.79	20.9133
3173.19	50.1842
3172.59	25.0883
3172	16.723
3171.4	45.9813
3170.8	16.7179
3170.2	37.6097
3169.6	25.0693
3169	29.2431
3168.41	33.4156
3167.81	-4.17632
3167.21	29.2298
3166.61	33.4005
3166.01	20.8721
3165.41	45.9117
3164.81	-4.17316
3164.21	37.5528
3163.61	29.2033
3163.01	41.7127
3162.42	25.0238
3161.82	25.02
3161.22	29.1856
3160.62	41.6874
3160.02	29.1768
3159.42	4.16748
3158.82	29.1679
3158.22	12.4986
3157.62	20.8279
3157.02	41.6495
3156.42	12.493
3155.82	49.9643
3155.21	33.3045
3154.61	33.2994
3154.01	54.1033
3153.41	8.32233
3152.81	29.1237
3152.21	16.6396
3151.61	16.6371
3151.01	8.31728
3150.41	37.4221
3149.81	24.9443
3149.2	29.0973
3148.6	33.249
3148	37.3994
3147.4	41.5486
3146.8	49.8508
3146.2	45.6896
3145.59	33.2238
3144.99	29.0664
3144.39	41.5171
3143.79	12.4532
3143.19	49.8054
3142.58	33.1986
3141.98	12.4476
3141.38	41.4856
3140.78	12.4438
3140.17	20.7365
3139.57	4.14667
3138.97	41.4604
3138.36	12.4362
3137.76	37.3031
3137.16	33.1532
3136.55	20.7176
3135.95	41.429
3135.35	37.2804
3134.74	16.5666
3134.14	37.2691
3133.54	24.8423
3132.93	16.559
3132.33	33.113
3131.72	24.831
3131.12	41.3787
3130.52	24.8234
3129.91	16.5464
3129.31	37.2239
3128.7	45.4889
3128.1	20.6736
3127.49	41.341
3126.89	62.0021
3126.28	28.9299
3125.68	45.4544
3125.07	61.9738
3124.47	16.5238
3123.86	37.173
3123.26	8.25941
3122.65	37.1617
3122.05	41.2845
3121.44	16.5113
3120.83	33.0176
3120.23	53.6454
3119.62	20.6297
3119.02	24.7519
3118.41	37.1222
3117.8	28.8684
3117.2	16.4937
3116.59	12.3684
3115.99	4.12218
3115.38	16.4862
3114.77	65.9348
3114.17	57.6842
3113.56	45.3164
3112.95	37.0714
3112.34	32.9474
3111.74	53.5313
3111.13	49.406
3110.52	24.6992
3109.92	28.8114
3109.31	24.6917
3108.7	37.032
3108.09	24.6842
3107.48	53.4743
3106.88	49.3534
3106.27	24.673
3105.66	32.8923
3105.05	36.9982
3104.44	53.4337
3103.84	41.0966
3103.23	41.0903
3102.62	36.9757
3102.01	61.6167
3101.4	41.0716
3100.79	45.1718
3100.18	61.5886
3099.58	57.4739
3098.97	28.7326
3098.36	28.7282
3097.75	36.9307
3097.14	28.7195
3096.53	49.2259
3095.92	53.3199
3095.31	57.4127
3094.7	24.6017
3094.09	40.9966
3093.48	24.5942
3092.87	40.9841
3092.26	40.9779
3091.65	32.7773
3091.04	57.3515
3090.43	32.7673
3089.82	69.6199
3089.21	45.0413
3088.6	45.0345
3087.99	40.9342
3087.38	36.8351
3086.77	32.7374
3086.15	40.9155
3085.54	36.8183
3084.93	36.8127
3084.32	36.8071
3083.71	40.8905
3083.1	49.0612
3082.49	49.0537
3081.87	61.3078
3081.26	20.4328
3080.65	44.9453
3080.04	40.8531
3079.43	44.9316
3078.81	44.9248
3078.2	44.9179
3077.59	36.7454
3076.98	44.9042
3076.37	73.4684
3075.75	44.8905
3075.14	44.8837
3074.53	20.3986
3073.91	40.7909
3073.3	44.8631
3072.69	40.7784
3072.08	24.4633
3071.46	28.5362
3070.85	32.6078
3070.24	69.2811
3069.62	44.8221
3069.01	40.7411
3068.39	77.3963
3067.78	36.6558
3067.17	40.7225
3066.55	57.0028
3065.94	40.71
3065.32	20.3519
3064.71	52.9069
3064.1	32.5531
3063.48	48.8222
3062.87	28.4753
3062.25	44.7401
3061.64	52.8665
3061.02	36.5943
3060.41	48.785
3059.79	24.3888
3059.18	32.5134
3058.56	44.6991
3057.95	69.0698
3057.33	73.1216
3056.72	32.4935
3056.1	52.7939
3055.48	44.6649
3054.87	40.5983
3054.25	36.5329
3053.64	48.7031
3053.02	12.1739
3052.4	64.9176
3051.79	52.7375
3051.17	60.8416
3050.56	28.3884
3049.94	81.0974
3049.32	36.4882
3048.71	56.7508
3048.09	52.6891
3047.47	52.6811
3046.85	40.5177
3046.24	48.6138
3045.62	52.6569
3045	28.3494
3044.39	32.3944
3043.77	56.6815
3043.15	68.817
3042.53	44.5218
3041.92	56.6555
3041.3	44.5082
3040.68	68.7749
3040.06	28.3147
3039.44	56.6208
3038.83	56.6121
3038.21	28.3017
3037.59	68.7223
3036.97	76.7955
3036.35	48.495
3035.73	36.3657
3035.11	52.5202
3034.49	60.5909
3033.88	44.4266
3033.26	24.229
3032.64	48.4505
3032.02	52.48
3031.4	36.3268
3030.78	32.2855
3030.16	40.3507
3029.54	60.5168
3028.92	76.6429
3028.3	52.4318
3027.68	80.652
3027.06	44.3518
3026.44	56.4391
3025.82	44.3382
3025.2	68.5122
3024.58	64.4722
3023.96	44.3179
3023.34	68.4808
3022.72	60.415
3022.1	32.2164
3021.48	64.4229
3020.85	48.3098
3020.23	60.378
3019.61	64.3933
3018.99	76.4553
3018.37	32.1868
3017.75	48.2728
3017.13	80.4423
3016.51	72.387
3015.88	80.4176
3015.26	56.2837
3014.64	76.3733
3014.02	68.3236
3013.4	40.1842
3012.77	60.267
3012.15	56.2406
3011.53	52.2154
3010.91	48.1915
3010.28	60.2301
3009.66	56.2061
3009.04	64.2257
3008.42	104.351
3007.79	44.1416
3007.17	72.2207
3006.55	32.0932
3005.92	64.1765
3005.3	64.1667
3004.68	76.1862
3004.05	68.1562
3003.43	56.12
3002.8	76.1512
3002.18	48.0881
3001.56	56.0942
3000.93	92.1406
3000.31	96.1319
2999.68	92.1123
2999.06	84.0896
2998.44	64.0585
2997.81	56.0425
2997.19	72.0436
2996.56	76.0344
2995.94	60.0179
2995.31	88.0128
2994.69	99.9992
2994.06	91.9851
2993.44	71.9773
2992.81	79.9625
2992.19	59.9627
2991.56	75.9411
2990.93	95.9108
2990.31	55.9394
2989.68	75.9061
2989.06	63.9111
2988.43	71.889
2987.81	43.9254
2987.18	87.8373
2986.55	99.7998
2985.93	91.8017
2985.3	95.7784
2984.67	103.744
2984.05	87.7699
2983.42	91.7453
2982.79	95.7195
2982.17	111.656
2981.54	83.7289
2980.91	71.7566
2980.29	107.618
2979.66	95.646
2979.03	107.585
2978.4	87.6486
2977.78	95.6019
2977.15	103.553
2976.52	95.5725
2975.89	87.5947
2975.26	103.505
2974.64	83.5874
2974.01	119.392
2973.38	103.457
2972.75	143.227
2972.12	103.426
2971.49	107.387
2970.87	103.394
2970.24	115.306
2969.61	103.362
2968.98	151.044
2968.35	119.227
2967.72	95.367
2967.09	143.028
2966.46	135.062
2965.83	91.3512
2965.2	123.107
2964.57	123.088
2963.94	111.159
2963.31	111.142
2962.68	138.906
2962.05	107.139
2961.42	134.896
2960.79	119.007
2960.16	118.989
2959.53	134.833
2958.9	146.708
2958.27	91.1826
2957.64	166.482
2957.01	126.824
2956.38	138.692
2955.75	134.709
2955.12	122.804
2954.49	126.746
2953.85	150.487
2953.22	162.343
2952.59	146.482
2951.96	142.501
2951.33	130.606
2950.7	162.243
2950.07	182.001
2949.43	174.061
2948.8	189.855
2948.17	154.234
2947.54	185.843
2946.9	154.186
2946.27	166.021
2945.64	122.52
2945.01	185.728
2944.37	181.748
2943.74	161.968
2943.11	169.843
2942.48	165.867
2941.84	165.842
2941.21	189.504
2940.58	201.317
2939.94	189.446
2939.31	189.417
2938.68	197.279
2938.04	149.909
2937.41	220.884
2936.77	216.906
2936.14	169.555
2935.51	189.242
2934.87	204.98
2934.24	165.535
2933.6	189.154
2932.97	208.825
2932.33	224.551
2931.7	200.883
2931.06	200.852
2930.43	196.884
2929.79	216.538
2929.16	196.823
2928.52	188.921
2927.89	220.373
2927.25	220.339
2926.62	188.833
2925.98	204.538
2925.35	247.767
2924.71	196.61
2924.07	176.922
2923.44	184.757
2922.8	192.589
2922.17	192.559
2921.53	165.025
2920.89	180.714
2920.26	223.894
2919.62	208.15
2918.98	176.704
2918.35	184.529
2917.71	231.606
2917.07	223.721
2916.44	172.67
2915.8	223.652
2915.16	223.617
2914.52	156.9
2913.89	192.173
2913.25	219.592
2912.61	176.431
2911.97	215.604
2911.34	192.054
2910.7	215.538
2910.06	235.096
2909.42	219.389
2908.78	219.355
2908.15	266.318
2907.51	187.96
2906.87	242.745
2906.23	215.305
2905.59	215.271
2904.95	242.632
2904.31	219.118
2903.67	219.084
2903.04	238.608
2902.4	195.55
2901.76	250.265
2901.12	218.948
2900.48	203.278
2899.84	214.972
2899.2	211.031
2898.56	226.628
2897.92	203.152
2897.28	230.464
2896.64	242.145
2896	210.868
2895.36	214.739
2894.72	245.936
2894.08	222.479
2893.44	218.542
2892.8	218.508
2892.16	210.672
2891.51	230.143
2890.87	241.808
2890.23	269.067
2889.59	241.733
2888.95	237.797
2888.31	288.431
2887.67	272.798
2887.03	237.687
2886.38	253.234
2885.74	276.566
2885.1	221.998
2884.46	288.163
2883.82	245.29
2883.17	284.181
2882.53	225.752
2881.89	272.418
2881.25	241.247
2880.6	221.757
2879.96	268.401
2879.32	248.913
2878.68	209.988
2878.03	252.724
2877.39	171.048
2876.75	213.777
2876.1	248.721
2875.46	202.054
2874.82	202.023
2874.17	174.8
2873.53	198.076
2872.89	205.812
2872.24	217.428
2871.6	221.277
2870.95	225.124
2870.31	228.97
2869.66	194.012
2869.02	201.741
2868.38	193.952
2867.73	197.8
2867.09	186.136
2866.44	201.616
2865.8	228.721
2865.15	217.058
2864.51	236.401
2863.86	282.863
2863.22	209.208
2862.57	228.544
2861.93	178.159
2861.28	232.346
2860.63	216.822
2859.99	216.789
2859.34	201.272
2858.7	205.111
2858.05	212.818
2857.4	228.261
2856.76	201.148
2856.11	232.057
2855.46	274.559
2854.82	216.52
2854.17	259.01
2853.52	231.913
2852.88	231.877
2852.23	224.113
2851.58	266.576
2850.94	212.455
2850.29	278.08
2849.64	239.421
2848.99	231.661
2848.35	189.161
2847.7	185.272
2847.05	189.102
2846.4	208.366
2845.76	185.185
2845.11	185.156
2844.46	169.7
2843.81	223.661
2843.16	192.781
2842.51	169.621
2841.87	161.886
2841.22	138.738
2840.57	142.57
2839.92	134.842
2839.27	142.525
2838.62	115.543
2837.97	142.481
2837.32	107.807
2836.67	142.437
2836.02	127.018
2835.37	111.605
2834.72	142.37
2834.07	126.959
2833.42	100.013
2832.77	99.9974
2832.12	130.745
2831.47	126.88
2830.82	115.328
2830.17	107.623
2829.52	119.135
2828.87	119.116
2828.22	92.2049
2827.57	96.0318
2826.92	84.4948
2826.27	126.723
2825.62	95.987
2824.97	115.166
2824.31	126.663
2823.66	88.2668
2823.01	118.95
2822.36	118.931
2821.71	130.42
2821.06	99.7178
2820.4	115.041
2819.75	103.521
2819.1	84.3372
2818.45	130.319
2817.8	80.4786
2817.14	118.783
2816.49	114.934
2815.84	88.1021
2815.19	118.728
2814.53	130.197
2813.88	107.205
2813.23	95.7035
2812.57	118.654
2811.92	122.462
2811.27	99.4852
2810.61	122.424
2809.96	99.4542
2809.31	126.211
2808.65	137.663
2808	122.348
2807.34	107.038
2806.69	110.843
2806.04	141.399
2805.38	110.809
2804.73	99.3303
2804.07	99.3149
2803.42	118.395
2802.76	118.377
2802.11	133.631
2801.45	103.07
2800.8	106.871
2800.14	80.1409
2799.49	122.1
2798.83	83.9309
2798.18	83.9178
2797.52	125.857
2796.87	83.8917
2796.21	125.818
2795.56	76.2414
2794.9	99.0983
2794.24	102.894
2793.59	106.688
2792.93	91.4326
2792.28	102.846
2791.62	91.4041
2790.96	91.3898
2790.31	118.027
2789.65	129.429
2788.99	102.765
2788.33	117.972
2787.68	91.3186
2787.02	114.13
2786.36	98.8976
2785.71	129.307
2785.05	114.077
2784.39	110.257
2783.73	136.85
2783.08	106.422
2782.42	102.605
2781.76	121.587
2781.1	110.171
2780.44	94.9603
2779.79	132.924
2779.13	79.7418
2778.47	121.492
2777.81	91.105
2777.15	94.8862
2776.49	94.8714
2775.83	113.828
2775.17	113.81
2774.52	94.8269
2773.86	121.36
2773.2	128.924
2772.54	94.7825
2771.88	109.931
2771.22	102.333
2770.56	102.317
2769.9	136.402
2769.24	109.862
2768.58	113.632
2767.92	117.402
2767.26	98.4507
2766.6	143.867
2765.94	105.991
2765.28	105.974
2764.62	105.958
2763.96	117.292
2763.3	121.056
2762.63	147.515
2761.97	109.673
2761.31	128.562
2760.65	113.419
2759.99	113.402
2759.33	102.046
2758.67	139.818
2758	120.905
2757.34	132.219
2756.68	113.313
2756.02	139.731
2755.36	120.829
2754.69	143.463
2754.03	113.242
2753.37	128.321
2752.71	105.66
2752.04	105.643
2751.38	128.261
2750.72	150.872
2750.06	101.822
2749.39	109.348
2748.73	124.411
2748.07	101.775
2747.4	97.9898
2746.74	135.657
2746.08	116.797
2745.41	109.245
2744.75	120.527
2744.09	112.977
2743.42	71.5407
2742.76	128
2742.09	131.744
2741.43	101.615
2740.76	139.229
2740.1	142.969
2739.44	105.329
2738.77	116.596
2738.11	127.86
2737.44	135.36
2736.78	116.542
2736.11	127.8
2735.45	157.846
2734.78	116.487
2734.12	150.282
2733.45	169.041
2732.78	131.456
2732.12	120.169
2731.45	138.924
2730.79	150.164
2730.12	176.415
2729.45	176.388
2728.79	112.57
2728.12	135.063
2727.46	142.544
2726.79	112.517
2726.12	135
2725.46	116.231
2724.79	157.45
2724.12	112.447
2723.45	138.663
2722.79	161.123
2722.12	153.605
2721.45	157.327
2720.78	134.83
2720.12	123.575
2719.45	160.997
2718.78	160.972
2718.11	145.975
2717.45	134.725
2716.78	138.445
2716.11	142.165
2715.44	149.624
2714.77	145.86
2714.1	157.055
2713.44	138.337
2712.77	142.053
2712.1	145.769
2711.43	119.586
2710.76	164.405
2710.09	164.379
2709.42	104.589
2708.75	108.307
2708.08	145.631
2707.41	156.809
2706.74	134.387
2706.07	145.563
2705.4	126.881
2704.73	111.936
2704.06	123.11
2703.39	145.471
2702.72	137.99
2702.05	137.968
2701.38	111.848
2700.71	134.197
2700.04	119.267
2699.37	201.232
2698.7	145.311
2698.03	134.113
2697.36	134.091
2696.68	115.45
2696.01	134.049
2695.34	167.535
2694.67	96.783
2694	126.542
2693.33	156.293
2692.65	130.223
2691.98	163.684
2691.31	145.06
2690.64	141.319
2689.97	148.733
2689.29	144.992
2688.62	141.252
2687.95	148.663
2687.28	130.06
2686.6	167.193
2685.93	152.308
2685.26	155.998
2684.58	115.123
2683.91	163.375
2683.24	155.924
2682.56	163.324
2681.89	144.741
2681.22	170.694
2680.54	155.826
2679.87	152.092
2679.19	118.687
2678.52	152.044
2677.85	126.066
2677.17	107.51
2676.5	196.452
2675.82	126.006
2675.15	133.397
2674.47	137.081
2673.8	151.877
2673.12	133.334
2672.45	162.938
2671.77	144.4
2671.1	125.867
2670.42	140.653
2669.75	151.733
2669.07	136.909
2668.4	133.187
2667.72	173.856
2667.04	144.241
2666.37	166.405
2665.69	166.379
2665.01	140.476
2664.34	136.758
2663.66	169.996
2662.99	129.325
2662.31	184.72
2661.63	147.753
2660.95	155.116
2660.28	155.092
2659.6	158.759
2658.92	140.277
2658.25	140.255
2657.57	166.065
2656.89	147.59
2656.21	173.391
2655.54	121.723
2654.86	169.648
2654.18	151.184
2653.5	151.161
2652.82	151.137
2652.15	147.427
2651.47	158.459
2650.79	143.696
2650.11	173.145
2649.43	162.068
2648.75	132.58
2648.07	158.334
2647.39	147.264
2646.72	106.75
2646.04	158.259
2645.36	139.835
2644.68	139.813
2644	176.578
2643.32	128.734
2642.64	180.2
2641.96	169.14
2641.28	165.437
2640.6	143.356
2639.92	143.334
2639.24	150.66
2638.56	146.963
2637.88	180.001
2637.2	128.552
2636.51	150.565
2635.83	157.885
2635.15	132.162
2634.47	168.847
2633.79	161.48
2633.11	157.785
2632.43	205.455
2631.75	187.082
2631.06	143.04
2630.38	187.022
2629.7	146.661
2629.02	164.968
2628.34	164.942
2627.66	175.91
2626.97	168.554
2626.29	153.873
2625.61	157.511
2624.93	150.161
2624.24	164.785
2623.56	161.098
2622.88	190.358
2622.19	164.707
2621.51	153.702
2620.83	197.586
2620.14	153.654
2619.46	149.972
2618.78	168.234
2618.09	157.238
2617.41	149.901
2616.73	179.121
2616.04	186.403
2615.36	179.064
2614.67	164.421
2613.99	153.435
2613.3	171.674
2612.62	149.735
2611.94	160.665
2611.25	186.196
2610.57	178.866
2609.88	175.188
2609.2	182.459
2608.51	171.484
2607.83	175.105
2607.14	167.782
2606.45	175.05
2605.77	182.314
2605.08	174.994
2604.4	182.257
2603.71	153.071
2603.03	178.555
2602.34	142.093
2601.65	145.713
2600.97	167.543
2600.28	182.084
2599.59	189.337
2598.91	145.621
2598.22	196.557
2597.53	149.214
2596.85	174.662
2596.16	163.72
2595.47	189.157
2594.78	145.482
2594.1	134.55
2593.41	178.16
2592.72	149.049
2592.03	167.199
2591.35	185.343
2590.66	163.512
2589.97	174.385
2589.28	167.093
2588.59	185.226
2587.9	159.777
2587.22	192.428
2586.53	188.768
2585.84	177.849
2585.15	177.821
2584.46	188.678
2583.77	159.625
2583.08	188.618
2582.39	174.082
2581.7	188.558
2581.01	188.528
2580.32	170.374
2579.63	188.469
2578.94	173.944
2578.25	192.032
2577.56	173.888
2576.87	195.593
2576.18	181.076
2575.49	137.596
2574.8	137.574
2574.11	206.329
2573.42	213.534
2572.73	188.17
2572.04	162.813
2571.35	173.64
2570.66	191.697
2569.97	180.818
2569.27	148.247
2568.58	177.145
2567.89	202.419
2567.2	206.001
2566.51	169.834
2565.82	173.42
2565.12	173.392
2564.43	198.647
2563.74	205.838
2563.05	187.752
2562.35	180.502
2561.66	209.349
2560.97	169.618
2560.28	184.024
2559.58	180.387
2558.89	216.431
2558.2	180.33
2557.5	216.362
2556.81	187.484
2556.12	201.874
2555.42	187.424
2554.73	227.036
2554.04	234.206
2553.34	176.527
2552.65	180.101
2551.95	187.275
2551.26	169.241
2550.56	234.02
2549.87	201.585
2549.18	194.355
2548.48	183.528
2547.79	194.293
2547.09	190.664
2546.4	165.456
2545.7	208.585
2545.01	201.361
2544.31	172.567
2543.61	201.297
2542.92	179.7
2542.22	168.892
2541.53	179.643
2540.83	190.392
2540.14	190.361
2539.44	175.966
2538.74	201.072
2538.05	165.14
2537.35	186.651
2536.65	229.687
2535.96	229.651
2535.26	193.737
2534.56	186.532
2533.87	186.502
2533.17	200.817
2532.47	207.955
2531.77	215.092
2531.08	204.305
2530.38	222.191
2529.68	232.905
2528.98	193.46
2528.29	197.011
2527.59	207.724
2526.89	189.786
2526.19	179.015
2525.49	168.247
2524.79	200.433
2524.1	239.766
2523.4	254.04
2522.7	189.605
2522	225.344
2521.3	225.308
2520.6	210.969
2519.9	196.635
2519.2	214.476
2518.5	196.572
2517.8	210.834
2517.1	192.936
2516.4	214.339
2515.7	217.877
2515	192.844
2514.3	221.378
2513.6	217.773
2512.9	217.738
2512.2	210.566
2511.5	221.237
2510.8	203.363
2510.1	203.33
2509.4	235.398
2508.7	217.53
2508	238.888
2507.3	206.766
2506.59	178.218
2505.89	178.189
2505.19	235.173
2504.49	228.01
2503.79	249.346
2503.09	206.568
2502.38	224.34
2501.68	199.381
2500.98	199.349
2500.28	188.64
2499.57	238.431
2498.87	245.509
2498.17	195.665
2497.47	227.646
2496.76	206.271
2496.06	245.353
2495.36	223.982
2494.65	223.946
2493.95	238.127
2493.25	188.339
2492.54	213.18
2491.84	213.146
2491.14	206.008
2490.43	213.078
2489.73	216.594
2489.02	223.66
2488.32	216.525
2487.61	220.039
2486.91	227.101
2486.21	237.709
2485.5	223.481
2484.8	191.525
2484.09	223.41
2483.39	258.83
2482.68	223.338
2481.98	230.392
2481.27	177.196
2480.56	230.318
2479.86	247.995
2479.15	223.16
2478.45	230.208
2477.74	265.582
2477.04	237.215
2476.33	258.417
2475.62	251.297
2474.92	265.412
2474.21	183.989
2473.5	229.95
2472.8	244.062
2472.09	229.877
2471.38	243.984
2470.68	236.874
2469.97	240.371
2469.26	250.935
2468.55	222.625
2467.85	233.189
2467.14	226.087
2466.43	233.114
2465.72	264.86
2465.01	222.447
2464.31	229.472
2463.6	222.376
2462.89	201.165
2462.18	229.362
2461.47	271.662
2460.76	239.871
2460.05	250.414
2459.35	253.9
2458.64	215.075
2457.93	253.819
2457.22	239.679
2456.51	236.117
2455.8	243.126
2455.09	225.472
2454.38	228.958
2453.67	246.531
2452.96	218.321
2452.25	264.056
2451.54	214.731
2450.83	246.373
2450.12	207.624
2449.41	246.294
2448.7	270.88
2447.99	193.455
2447.28	235.625
2446.57	235.587
2445.85	267.191
2445.14	246.057
2444.43	284.678
2443.72	270.576
2443.01	256.479
2442.3	295.079
2441.59	228.299
2440.87	273.914
2440.16	224.714
2439.45	245.742
2438.74	238.682
2438.02	294.796
2437.31	270.186
2436.6	228.042
2435.89	266.591
2435.17	280.578
2434.46	238.453
2433.75	248.933
2433.03	280.442
2432.32	238.338
2431.61	231.291
2430.89	259.284
2430.18	266.249
2429.47	283.72
2428.75	301.185
2428.04	269.623
2427.33	231.068
2426.61	276.537
2425.9	248.493
2425.18	265.95
2424.47	269.406
2423.75	262.367
2423.04	241.339
2422.32	244.797
2421.61	258.744
2420.89	279.678
2420.18	262.156
2419.46	300.557
2418.75	241.106
2418.03	272.511
2417.32	258.494
2416.6	275.916
2415.88	247.935
2415.17	279.319
2414.45	314.183
2413.74	300.171
2413.02	254.756
2412.3	272.161
2411.59	233.742
2410.87	275.561
2410.15	261.567
2409.44	303.369
2408.72	237.078
2408	275.384
2407.28	261.399
2406.57	264.841
2405.85	292.672
2405.13	278.691
2404.41	278.646
2403.7	250.741
2402.98	250.701
2402.26	257.623
2401.54	295.871
2400.82	292.343
2400.11	240.1
2399.39	274.853
2398.67	278.288
2397.95	309.545
2397.23	309.495
2396.51	250.338
2395.79	292.014
2395.07	243.306
2394.35	243.267
2393.63	284.924
2392.91	264.033
2392.19	274.411
2391.47	305.624
2390.75	250.016
2390.03	249.975
2389.31	239.521
2388.59	274.19
2387.87	312.318
2387.15	308.798
2386.43	291.403
2385.71	263.608
2384.99	267.034
2384.27	260.056
2383.55	270.414
2382.83	273.837
2382.11	294.587
2381.38	291.075
2380.66	318.745
2379.94	273.661
2379.22	280.544
2378.5	322.054
2377.78	249.292
2377.05	287.332
2376.33	280.363
2375.61	321.846
2374.89	294.113
2374.16	290.606
2373.44	280.182
2372.72	287.054
2372	269.718
2371.27	286.961
2370.55	311.113
2369.83	314.519
2369.1	311.012
2368.38	355.879
2367.66	324.73
2366.93	314.316
2366.21	324.626
2365.48	272.78
2364.76	307.259
2364.03	269.24
2363.31	283.001
2362.59	320.913
2361.86	300.161
2361.14	296.663
2360.41	282.819
2359.69	334.5
2358.96	324.102
2358.24	337.839
2357.51	289.53
2356.79	268.806
2356.06	296.328
2355.33	337.621
2354.61	358.234
2353.88	285.852
2353.16	258.258
2352.43	299.531
2351.7	289.156
2350.98	302.876
2350.25	292.504
2349.53	295.897
2348.8	330.25
2348.07	264.846
2347.34	330.144
2346.62	288.829
2345.89	281.907
2345.16	312.797
2344.44	316.183
2343.71	350.494
2342.98	316.081
2342.25	340.076
2341.52	309.11
2340.8	333.098
2340.07	315.877
2339.34	326.124
2338.61	302.045
2337.88	326.019
2337.15	332.829
2336.43	312.191
2335.7	319.001
2334.97	291.513
2334.24	342.9
2333.51	325.703
2332.78	301.655
2332.05	308.461
2331.32	346.105
2330.59	328.918
2329.86	356.271
2329.13	321.962
2328.4	335.608
2327.67	332.129
2326.94	287.571
2326.21	321.753
2325.48	318.279
2324.75	335.336
2324.02	311.333
2323.29	321.545
2322.56	342.014
2321.83	369.315
2321.1	314.551
2320.36	341.848
2319.63	334.957
2318.9	307.563
2318.17	362.183
2317.44	351.875
2316.71	351.818
2315.97	324.44
2315.24	355.119
2314.51	310.679
2313.78	300.388
2313.04	341.295
2312.31	310.528
2311.58	290.006
2310.85	317.25
2310.11	320.609
2309.38	310.326
2308.65	337.553
2307.91	381.817
2307.18	374.938
2306.45	330.573
2305.71	330.52
2304.98	361.128
2304.25	340.631
2303.51	337.17
2302.78	350.737
2302.04	330.252
2301.31	367.643
2300.57	333.548
2299.84	364.121
2299.1	330.038
2298.37	340.19
2297.63	333.332
2296.9	340.079
2296.16	340.024
2295.43	336.569
2294.69	336.515
2293.96	360.25
2293.22	353.396
2292.49	360.133
2291.75	373.663
2291.01	360.017
2290.28	326
2289.54	342.923
2288.81	366.631
2288.07	386.936
2287.33	376.693
2286.6	325.735
2285.86	352.823
2285.12	393.469
2284.38	335.751
2283.65	352.651
2282.91	339.032
2282.17	359.316
2281.43	382.982
2280.7	369.365
2279.96	332.036
2279.22	406.508
2278.48	355.637
2277.74	372.512
2277.01	365.679
2276.27	365.62
2275.53	352.021
2274.79	395.96
2274.05	378.977
2273.31	341.7
2272.57	372.088
2271.83	378.792
2271.09	378.73
2270.36	331.335
2269.62	358.325
2268.88	388.685
2268.14	348.07
2267.4	334.499
2266.66	354.714
2265.92	371.544
2265.18	401.878
2264.44	361.294
2263.7	391.619
2262.95	398.306
2262.21	388.117
2261.47	388.054
2260.73	381.243
2259.99	357.568
2259.25	347.392
2258.51	387.801
2257.77	404.596
2257.03	384.304
2256.28	380.871
2255.54	336.999
2254.8	326.836
2254.06	336.889
2253.32	421.043
2252.57	367.09
2251.83	370.397
2251.09	390.537
2250.35	400.572
2249.6	407.238
2248.86	400.442
2248.12	336.451
2247.37	400.311
2246.63	373.339
2245.89	383.367
2245.14	339.594
2244.4	359.709
2243.66	376.457
2242.91	389.838
2242.17	356.174
2241.42	346.037
2240.68	349.339
2239.93	433.245
2239.19	413.026
2238.45	409.602
2237.7	416.249
2236.96	375.905
2236.21	436.247
2235.47	365.717
2234.72	375.721
2233.98	382.368
2233.23	382.306
2232.48	375.538
2231.74	439.173
2230.99	415.638
2230.25	385.408
2229.5	432.257
2228.75	378.582
2228.01	418.717
2227.26	395.204
2226.52	341.562
2225.77	401.772
2225.02	401.706
2224.27	401.641
2223.53	384.843
2222.78	398.164
2222.03	347.918
2221.29	354.551
2220.54	418.034
2219.79	414.623
2219.04	391.153
2218.29	394.431
2217.55	424.446
2216.8	380.936
2216.05	394.238
2215.3	374.131
2214.55	397.449
2213.8	414.081
2213.06	440.724
2212.31	433.976
2211.56	403.865
2210.81	410.474
2210.06	430.427
2209.31	467.053
2208.56	383.588
2207.81	430.216
2207.06	416.808
2206.31	410.072
2205.56	453.339
2204.81	423.269
2204.06	403.206
2203.31	416.467
2202.56	429.724
2201.81	413
2201.06	406.273
2200.31	426.184
2199.56	419.456
2198.81	452.672
2198.06	452.598
2197.3	399.286
2196.55	432.489
2195.8	382.524
2195.05	432.348
2194.3	415.651
2193.55	379.012
2192.79	412.191
2192.04	405.476
2191.29	431.994
2190.54	455.181
2189.78	408.599
2189.03	415.175
2188.28	448.316
2187.53	438.282
2186.77	395.053
2186.02	404.946
2185.27	444.704
2184.51	464.54
2183.76	437.923
2183	417.949
2182.25	457.679
2181.5	464.236
2180.74	444.267
2179.99	460.769
2179.23	430.865
2178.48	453.991
2177.73	434.037
2176.97	493.595
2176.22	496.826
2175.46	486.81
2174.71	473.486
2173.95	496.582
2173.2	423.681
2172.44	446.777
2171.68	479.793
2170.93	410.239
2170.17	436.634
2169.42	453.099
2168.66	509.24
2167.91	482.707
2167.15	419.82
2166.39	456.107
2165.64	436.205
2164.88	482.39
2164.12	429.455
2163.37	422.779
2162.61	452.431
2161.85	429.244
2161.09	455.584
2160.34	518.225
2159.58	521.44
2158.82	508.156
2158.06	432.191
2157.31	484.899
2156.55	441.944
2155.79	455.062
2155.03	428.611
2154.27	418.651
2153.51	441.654
2152.76	454.763
2152	428.33
2151.24	441.437
2150.48	444.658
2149.72	414.946
2148.96	464.268
2148.2	470.776
2147.44	447.658
2146.68	529.861
2145.92	460.673
2145.16	470.467
2144.4	509.863
2143.64	457.157
2142.88	470.236
2142.12	450.431
2141.36	489.805
2140.6	493.011
2139.84	443.637
2139.08	535.563
2138.32	459.917
2137.56	463.126
2136.8	499.175
2136.03	492.526
2135.27	502.294
2134.51	449.692
2133.75	492.283
2132.99	505.327
2132.23	462.594
2131.46	508.442
2130.7	511.638
2129.94	508.274
2129.18	449.175
2128.41	485.161
2127.65	481.803
2126.89	507.94
2126.13	478.368
2125.36	448.806
2124.6	510.965
2123.84	484.682
2123.07	487.877
2122.31	494.344
2121.54	533.542
2120.78	520.363
2120.02	530.094
2119.25	500.562
2118.49	493.938
2117.72	477.504
2116.96	483.965
2116.19	516.581
2115.43	509.958
2114.67	486.995
2113.9	499.986
2113.13	457.428
2112.37	437.752
2111.6	444.213
2110.84	483.328
2110.07	502.84
2109.31	509.287
2108.54	522.259
2107.78	509.119
2107.01	538.403
2106.24	535.051
2105.48	495.82
2104.71	512.045
2103.94	502.178
2103.18	453.19
2102.41	537.871
2101.64	482.374
2100.88	534.435
2100.11	547.38
2099.34	514.713
2098.57	511.371
2097.81	501.517
2097.04	533.995
2096.27	511.118
2095.5	504.524
2094.73	533.731
2093.97	491.342
2093.2	510.781
2092.43	533.467
2091.66	507.36
2090.89	513.78
2090.12	494.188
2089.35	497.357
2088.58	533.027
2087.81	513.442
2087.04	519.855
2086.28	523.018
2085.51	490.451
2084.74	500.113
2083.97	506.524
2083.2	512.934
2082.43	532.324
2081.66	516.01
2080.88	525.659
2080.11	522.328
2079.34	518.998
2078.57	525.399
2077.8	499.371
2077.03	567.373
2076.26	551.072
2075.49	502.365
2074.72	508.763
2073.94	508.679
2073.17	492.398
2072.4	534.422
2071.63	579.672
2070.86	621.668
2070.08	505.022
2069.31	563.201
2068.54	491.91
2067.77	520.95
2066.99	537.04
2066.22	501.37
2065.45	578.906
2064.68	497.971
2063.9	552.851
2063.13	578.619
2062.36	526.812
2061.58	578.428
2060.81	549.254
2060.03	520.09
2059.26	565.222
2058.49	532.836
2057.71	590.865
2056.94	568.17
2056.16	558.393
2055.39	584.118
2054.61	554.982
2053.84	535.533
2053.06	532.219
2052.29	612.757
2051.51	499.798
2050.74	625.45
2049.96	541.538
2049.19	589.792
2048.41	673.476
2047.63	573.487
2046.86	525.073
2046.08	595.843
2045.31	560.322
2044.53	537.691
2043.75	531.164
2042.98	563.262
2042.2	572.823
2041.42	598.469
2040.64	550.115
2039.87	556.457
2039.09	578.876
2038.31	540.195
2037.54	562.61
2036.76	546.445
2035.98	562.424
2035.2	536.624
2034.42	578.301
2033.64	581.418
2032.87	623.074
2032.09	603.704
2031.31	613.236
2030.53	603.504
2029.75	616.242
2028.97	616.14
2028.19	612.829
2027.41	587.064
2026.63	580.552
2025.86	577.249
2025.08	628.455
2024.3	557.822
2023.52	548.114
2022.74	573.661
2021.96	554.34
2021.18	586.286
2020.39	566.97
2019.61	630.929
2018.83	602.005
2018.05	585.897
2017.27	627.414
2016.49	556.898
2015.71	579.206
2014.93	617.504
2014.15	620.6
2013.36	623.696
2012.58	633.186
2011.8	543.555
2011.02	604.205
2010.24	629.675
2009.45	623.179
2008.67	591.123
2007.89	584.635
2007.11	642.034
2006.32	584.441
2005.54	613.083
2004.76	577.862
2003.97	616.071
2003.19	625.543
2002.41	587.147
2001.62	622.145
2000.84	574.193
2000.06	599.613
1999.27	637.78
1998.49	618.544
1997.7	599.314
1996.92	637.462
1996.14	586.368
1995.35	627.692
1994.57	598.916
1993.78	624.298
1993	652.856
1992.21	582.697
1991.43	620.803
1990.64	646.165
1989.86	684.248
1989.07	655.496
1988.28	658.569
1987.5	620.288
1986.71	597.922
1985.93	629.621
1985.14	658.131
1984.35	635.77
1983.57	680.16
1982.78	651.447
1981.99	660.871
1981.21	625.817
1980.42	632.065
1979.63	644.663
1978.84	654.081
1978.06	647.623
1977.27	657.037
1976.48	647.408
1975.69	666.338
1974.91	694.78
1974.12	631.225
1973.33	675.52
1972.54	684.92
1971.75	678.465
1970.96	672.013
1970.17	624.361
1969.39	621.088
1968.6	697.024
1967.81	719.082
1967.02	665.119
1966.23	715.676
1965.44	652.233
1964.65	721.769
1963.86	633.025
1963.07	686.718
1962.28	670.783
1961.49	667.508
1960.7	686.375
1959.91	683.098
1959.12	619.745
1958.33	708.162
1957.54	695.401
1956.74	717.407
1955.95	676.21
1955.16	691.894
1954.37	707.572
1953.58	628.498
1952.79	704.179
1952	726.162
1951.2	691.317
1950.41	741.701
1949.62	687.931
1948.83	725.678
1948.03	637.228
1947.24	690.741
1946.45	703.24
1945.66	662.134
1944.86	703.006
1944.07	655.609
1943.28	693.317
1942.48	718.409
1941.69	658.431
1940.9	686.67
1940.1	702.303
1939.31	727.376
1938.51	730.403
1937.72	749.168
1936.93	701.834
1936.13	676.543
1935.34	679.577
1934.54	717.211
1933.75	632.173
1932.95	704.393
1932.16	745.149
1931.36	713.589
1930.57	719.756
1929.77	744.776
1928.97	725.799
1928.18	753.951
1927.38	694.148
1926.59	662.628
1925.79	712.755
1924.99	728.333
1924.2	687.406
1923.4	712.398
1922.6	775.035
1921.81	690.199
1921.01	712.041
1920.21	705.65
1919.42	827.824
1918.62	702.279
1917.82	752.316
1917.02	780.397
1916.23	761.465
1915.43	736.273
1914.63	670.367
1913.83	754.819
1913.03	739.036
1912.23	682.554
1911.44	770.093
1910.64	776.224
1909.84	813.647
1909.04	722.774
1908.24	760.193
1907.44	700.637
1906.64	813.103
1905.84	756.685
1905.04	769.063
1904.24	768.935
1903.44	715.677
1902.64	756.179
1901.84	802.915
1901.04	740.307
1900.24	812.016
1899.44	746.305
1898.64	774.279
1897.84	780.392
1897.04	758.414
1896.24	795.734
1895.44	698.881
1894.63	742.436
1893.83	776.62
1893.03	760.898
1892.23	829.365
1891.43	745.057
1890.63	797.919
1889.82	779.087
1889.02	869.315
1888.22	725.866
1887.42	788.04
1886.61	750.537
1885.81	769.093
1885.01	775.191
1884.2	728.371
1883.4	762.482
1882.6	843.258
1881.79	756.005
1880.99	849.196
1880.19	768.192
1879.38	758.734
1878.58	795.916
1877.77	783.348
1876.97	817.405
1876.17	835.913
1875.36	798.489
1874.56	816.994
1873.75	838.598
1872.95	760.823
1872.14	782.429
1871.34	794.715
1870.53	810.101
1869.72	850.308
1868.92	874.988
1868.11	840.716
1867.31	800.253
1866.5	862.143
1865.69	775.178
1864.89	846.353
1864.08	833.812
1863.27	852.267
1862.47	811.842
1861.66	821
1860.85	814.667
1860.05	836.21
1859.24	811.297
1858.43	863.793
1857.62	752.21
1856.82	838.743
1856.01	894.303
1855.2	801.334
1854.39	829.04
1853.58	807.251
1852.78	841.132
1851.97	794.612
1851.16	865.58
1850.35	825.254
1849.54	859.108
1848.73	806.437
1847.92	849.552
1847.11	861.764
1846.3	892.502
1845.49	861.475
1844.68	787.237
1843.87	895.139
1843.06	876.471
1842.25	863.981
1841.44	944.049
1840.63	909.96
1839.82	872.798
1839.01	857.233
1838.2	860.172
1837.39	844.615
1836.58	887.621
1835.77	847.412
1834.96	930.456
1834.14	865.61
1833.33	902.424
1832.52	911.51
1831.71	865.173
1830.9	852.714
1830.08	898.739
1829.27	849.35
1828.46	919.974
1827.65	898.285
1826.83	925.816
1826.02	870.305
1825.21	959.327
1824.39	876.161
1823.58	915.972
1822.77	875.866
1821.95	863.428
1821.14	872.499
1820.33	856.994
1819.51	838.422
1818.7	884.341
1817.88	871.911
1817.07	908.599
1816.25	902.308
1815.44	871.471
1814.63	880.528
1813.81	907.987
1813	935.438
1812.18	941.413
1811.36	941.254
1810.55	901.245
1809.73	821.404
1808.92	907.07
1808.1	959.003
1807.29	894.511
1806.47	894.36
1805.65	949.331
1804.84	921.615
1804.02	912.275
1803.2	939.669
1802.39	957.872
1801.57	973.01
1800.75	887.186
1799.93	899.272
1799.12	954.168
1798.3	905.084
1797.48	917.16
1796.66	959.799
1795.85	950.468
1795.03	993.087
1794.21	965.423
1793.39	953.042
1792.57	900.961
1791.75	940.506
1790.93	958.666
1790.12	909.663
1789.3	940.03
1788.48	900.201
1787.66	967.172
1786.84	963.958
1786.02	1018.69
1785.2	951.434
1784.38	926.882
1783.56	972.452
1782.74	877.802
1781.92	923.365
1781.1	968.913
1780.28	1035.77
1779.46	968.585
1778.64	934.923
1777.81	946.944
1776.99	922.43
1776.17	964.887
1775.35	986.027
1774.53	934.133
1773.71	976.567
1772.89	942.943
1772.06	961.031
1771.24	1003.44
1770.42	1015.43
1769.6	981.822
1768.77	939.107
1767.95	938.948
1767.13	1005.63
1766.3	923.443
1765.48	1023.51
1764.66	1020.3
1763.84	1020.13
1763.01	922.818
1762.19	995.504
1761.36	995.335
1760.54	992.133
1759.72	982.865
1758.89	946.302
1758.07	918.849
1757.24	942.95
1756.42	970.074
1755.59	994.157
1754.77	1039.45
1753.94	1024.12
1753.12	1057.27
1752.29	1048
1751.47	1041.77
1750.64	990.12
1749.82	1032.34
1748.99	1047.3
1748.16	1022.91
1747.34	1010.63
1746.51	1019.54
1745.68	1088.93
1744.86	1022.21
1744.03	964.589
1743.2	1076.29
1742.38	1048.9
1741.55	1103.12
1740.72	1084.81
1739.9	1075.56
1739.07	1120.69
1738.24	1078.21
1737.41	1087.09
1736.58	1017.46
1735.76	1071.63
1734.93	1005.05
1734.1	1044.11
1733.27	1065.05
1732.44	1034.7
1731.61	1025.48
1730.78	1064.51
1729.95	1094.48
1729.13	1097.31
1728.3	1060.95
1727.47	1072.83
1726.64	1063.61
1725.81	1066.44
1724.98	1084.33
1724.15	1099.2
1723.32	1126.11
1722.49	1047.65
1721.65	1044.46
1720.82	1119.52
1719.99	1071.19
1719.16	1113.13
1718.33	1112.94
1717.5	1034.55
1716.67	1094.52
1715.84	1106.36
1715.01	1106.17
1714.17	1030.85
1713.34	1108.8
1712.51	1078.57
1711.68	1189.53
1710.84	1126.25
1710.01	1123.06
1709.18	1065.83
1708.35	1107.67
1707.51	1230.53
1706.68	1116.3
1705.85	1173.11
1705.01	1139.91
1704.18	1130.72
1703.35	1109.54
1702.51	1193.3
1701.68	1169.12
1700.84	1174.91
1700.01	1093.8
1699.18	1135.56
1698.34	1201.28
1697.51	1201.07
1696.67	1146.96
1695.84	1071.91
1695	1164.53
1694.17	1155.36
1693.33	1116.26
1692.5	1172.92
1691.66	1124.85
1690.82	1148.59
1689.99	1106.53
1689.15	1187.07
1688.32	1142.02
1687.48	1219.55
1686.64	1189.45
1685.81	1174.31
1684.97	1174.11
1684.13	1197.81
1683.3	1203.58
1682.46	1128.72
1681.62	1227.05
1680.78	1196.99
1679.95	1217.68
1679.11	1190.62
1678.27	1211.3
1677.43	1178.28
1676.59	1210.89
1675.76	1201.73
1674.92	1207.49
1674.08	1269.89
1673.24	1242.85
1672.4	1251.57
1671.56	1248.38
1670.72	1218.38
1669.88	1286.68
1669.04	1322.19
1668.2	1265.4
1667.36	1297.93
1666.52	1264.96
1665.68	1249.87
1664.84	1300.24
1664	1302.99
1663.16	1252.2
1662.32	1263.89
1661.48	1305.3
1660.64	1269.4
1659.8	1260.27
1658.96	1349.21
1658.12	1283.61
1657.28	1235.86
1656.43	1321.78
1655.59	1268.1
1654.75	1327.27
1653.91	1264.7
1653.07	1273.39
1652.22	1350.34
1651.38	1296.69
1650.54	1257.91
1649.7	1290.32
1648.85	1242.65
1648.01	1275.05
1647.17	1248.15
1646.32	1224.23
1645.48	1330.71
1644.64	1208.99
1643.79	1297.67
1642.95	1205.62
1642.1	1208.37
1641.26	1252.58
1640.41	1290.86
1639.57	1278.8
1638.73	1334.81
1637.88	1319.79
1637.04	1304.77
1636.19	1301.59
1635.35	1274.75
1634.5	1336.63
1633.65	1235.88
1632.81	1285.92
1631.96	1247.28
1631.12	1276.62
1630.27	1344.35
1629.42	1276.18
1628.58	1246.43
1627.73	1284.6
1626.88	1308
1626.04	1313.68
1625.19	1331.17
1624.34	1310.28
1623.5	1369.07
1622.65	1262.64
1621.8	1286.02
1620.95	1294.64
1620.11	1288.52
1619.26	1362.01
1618.41	1314.61
1617.56	1379.22
1616.71	1378.99
1615.86	1422.94
1615.02	1387.35
1614.17	1401.84
1613.32	1345.65
1612.47	1339.53
1611.62	1336.36
1610.77	1412.65
1609.92	1362.39
1609.07	1353.33
1608.22	1406.04
1607.37	1417.57
1606.52	1452.61
1605.67	1417.08
1604.82	1499.14
1603.97	1381.33
1603.12	1451.62
1602.27	1389.67
1601.42	1392.37
1600.56	1398
1599.71	1394.83
1598.86	1376.97
1598.01	1414.9
1597.16	1402.92
1596.31	1335.18
1595.45	1367.23
1594.6	1320.06
1593.75	1399.02
1592.9	1419.31
1592.04	1301.79
1591.19	1354.33
1590.34	1371.68
1589.49	1368.52
1588.63	1333.13
1587.78	1385.63
1586.93	1326.81
1586.07	1350.01
1585.22	1279.51
1584.36	1296.85
1583.51	1346.39
1582.66	1331.53
1581.8	1307.89
1580.95	1398.35
1580.09	1313.29
1579.24	1336.46
1578.38	1388.86
1577.53	1309.69
1576.67	1315.31
1575.82	1259.56
1574.96	1326.55
1574.1	1247.44
1573.25	1323.17
1572.39	1322.95
1571.54	1267.24
1570.68	1337.09
1569.82	1281.4
1568.97	1357.06
1568.11	1339.32
1567.25	1307
1566.4	1353.44
1565.54	1420.29
1564.68	1309.24
1563.82	1346.92
1562.97	1387.49
1562.11	1375.6
1561.25	1305.43
1560.39	1273.15
1559.53	1287.5
1558.68	1301.84
1557.82	1386.06
1556.96	1347.98
1556.1	1280.79
1555.24	1362.07
1554.38	1347.28
1553.52	1280.13
1552.66	1271.19
1551.8	1334.95
1550.94	1384.16
1550.08	1383.92
1549.22	1357.52
1548.36	1424.13
1547.5	1284.41
1546.64	1380.06
1545.78	1420.49
1544.92	1365.07
1544.06	1451.95
1543.2	1323.95
1542.34	1419.52
1541.48	1364.13
1540.62	1421.93
1539.75	1410.08
1538.89	1406.94
1538.03	1444.4
1537.17	1406.45
1536.31	1345.32
1535.44	1388.57
1534.58	1362.25
1533.72	1364.91
1532.86	1460.29
1531.99	1465.84
1531.13	1485.86
1530.27	1404.52
1529.4	1398.48
1528.54	1349.03
1527.67	1377.74
1526.81	1432.49
1525.95	1455.39
1525.08	1374.14
1524.22	1420.18
1523.35	1408.37
1522.49	1384.99
1521.62	1326.93
1520.76	1404.75
1519.89	1433.4
1519.03	1386.93
1518.16	1360.69
1517.3	1351.79
1516.43	1386.21
1515.57	1475.48
1514.7	1342.43
1513.83	1423.02
1512.97	1290.02
1512.1	1399.44
1511.24	1433.82
1510.37	1422.04
1509.5	1493.89
1508.64	1424.43
1507.77	1406.88
1506.9	1426.82
1506.03	1440.98
1505.17	1409.04
1504.3	1368.46
1503.43	1371.11
1502.56	1448.63
1501.69	1445.5
1500.83	1384.79
1499.96	1430.61
1499.09	1433.24
1498.22	1461.77
1497.35	1450.01
1496.48	1464.14
1495.61	1409.24
1494.74	1486.64
1493.87	1440.38
1493	1477.5
1492.13	1494.49
1491.26	1465.5
1490.39	1450.88
1489.52	1464.99
1488.65	1444.63
1487.78	1467.35
1486.91	1461.36
1486.04	1458.24
1485.17	1446.5
1484.3	1529.47
1483.43	1480.43
1482.55	1477.31
1481.68	1531.55
1480.81	1473.93
1479.94	1594.09
1479.07	1456.22
1478.2	1544.82
1477.32	1576.07
1476.45	1661.75
1475.58	1589.85
1474.7	1612.49
1473.83	1649.44
1472.96	1580.44
1472.09	1554.4
1471.21	1657.17
1470.34	1674.05
1469.46	1753.87
1468.59	1676.33
1467.72	1667.46
1466.84	1650.01
1465.97	1704.05
1465.09	1786.66
1464.22	1766.34
1463.34	1783.18
1462.47	1717.16
1461.59	1731.14
1460.72	1727.99
1459.84	1696.28
1458.97	1650.3
1458.09	1832.72
1457.22	1755.33
1456.34	1732.2
1455.46	1780.41
1454.59	1891.35
1453.71	1839.69
1452.83	1776.63
1451.96	1839.05
1451.08	1833.03
1450.2	1784.26
1449.33	1818.14
1448.45	1814.98
1447.57	1846
1446.69	1802.96
1445.81	1734.3
1444.94	1847.89
1444.06	1821.95
1443.18	1898.48
1442.3	1957.91
1441.42	1843.76
1440.54	1891.8
1439.67	1962.58
1438.79	1908.21
1437.91	1842.48
1437.03	1864.91
1436.15	1810.58
1435.27	1827.32
1434.39	1798.59
1433.51	1892.02
1432.63	1726.95
1431.75	1786.29
1430.87	1695.12
1429.99	1677.79
1429.11	1657.63
1428.23	1657.34
1427.34	1710.97
1426.46	1665.28
1425.58	1713.21
1424.7	1741.27
1423.82	1610.54
1422.94	1695.31
1422.05	1726.19
1421.17	1788.24
1420.29	1671.76
1419.41	1609.14
1418.52	1634.35
1417.64	1696.37
1416.76	1698.91
1415.88	1675.97
1414.99	1729.46
1414.11	1709.35
1413.23	1728.86
1412.34	1570.13
1411.46	1731.08
1410.57	1643.11
1409.69	1676.76
1408.81	1667.99
1407.92	1594.2
1407.04	1619.36
1406.15	1715.15
1405.27	1655.53
1404.38	1570.5
1403.5	1700.14
1402.61	1646.19
1401.73	1552.74
1400.84	1654.09
1399.95	1642.51
1399.07	1687.37
1398.18	1633.47
1397.3	1689.6
1396.41	1613.17
1395.52	1604.43
1394.64	1677.45
1393.75	1795.54
1392.86	1648.68
1391.98	1679.39
1391.09	1670.64
1390.2	1757.67
1389.31	1777.08
1388.42	1697.93
1387.54	1798.99
1386.65	1793.04
1385.76	1823.69
1384.87	1772.72
1383.98	1727.4
1383.09	1713.03
1382.21	1718.36
1381.32	1881.15
1380.43	1852.71
1379.54	1866.44
1378.65	1852.06
1377.76	1843.31
1376.87	1910.42
1375.98	1806.15
1375.09	1828.31
1374.2	1794.29
1373.31	1911.89
1372.42	1802.09
1371.53	1905.61
1370.64	1882.83
1369.74	1843.23
1368.85	1876.57
1367.96	1808.93
1367.07	1859.09
1366.18	1802.69
1365.29	1822
1364.39	1804.87
1363.5	1768.12
1362.61	1896.69
1361.72	1792.72
1360.82	1812.01
1359.93	1828.49
1359.04	1760.98
1358.15	1771.87
1357.25	1849.93
1356.36	1807.63
1355.47	1826.9
1354.57	1890.92
1353.68	1871.01
1352.78	1828.74
1351.89	1881.54
1351	1886.8
1350.1	1880.88
1349.21	1900.11
1348.31	1818.76
1347.42	1877.1
1346.52	1871.19
1345.63	1932.29
1344.73	1940.33
1343.83	1853.46
1342.94	1953.61
1342.04	1908.62
1341.15	1913.87
1340.25	1835.43
1339.35	1913.2
1338.46	1985.36
1337.56	1915.32
1336.66	1909.41
1335.77	1805.96
1334.87	1788.92
1333.97	1886.12
1333.07	1888.58
1332.18	1921.67
1331.28	1921.33
1330.38	1876.45
1329.48	1812.1
1328.58	1956.5
1327.69	1855.99
1326.79	1825.06
1325.89	1821.96
1324.99	1779.92
1324.09	1913.08
1323.19	1909.97
1322.29	1829.02
1321.39	1909.3
1320.49	1858.95
1319.59	1772.5
1318.69	1913.85
1317.79	1905.18
1316.89	1949.28
1315.99	1932.28
1315.09	1931.94
1314.19	1959.36
1313.29	1839.7
1312.39	1966.99
1311.49	1852.92
1310.59	1885.88
1309.68	1904.96
1308.78	1954.53
1307.88	1932.01
1306.98	1923.36
1306.08	1959.04
1305.17	1858.96
1304.27	1930.66
1303.37	1963.55
1302.47	1960.44
1301.56	1946.25
1300.66	1990.2
1299.76	2034.13
1298.85	1967.37
1297.95	2030.65
1297.05	2010.93
1296.14	1946.97
1295.24	2054.47
1294.33	1976.7
1293.43	2050.98
1292.52	2111.43
1291.62	2019.87
1290.71	2008.47
1289.81	1999.83
1288.9	2132.04
1288	1963.23
1287.09	1996.01
1286.19	2023.27
1285.28	1984.27
1284.38	2039.11
1283.47	1994.61
1282.56	2049.43
1281.66	2060.1
1280.75	2043.2
1279.84	1927.05
1278.94	1957.03
1278.03	1926.37
1277.12	1989.41
1276.21	1881.62
1275.31	1903.32
1274.4	1941.54
1273.49	1954.97
1272.58	1803.21
1271.67	1824.92
1270.77	1810.83
1269.86	1851.79
1268.95	1837.71
1268.04	1776.87
1267.13	1826.06
1266.22	1803.75
1265.31	1778.69
1264.4	1750.89
1263.49	1731.34
1262.58	1772.25
1261.67	1802.16
1260.76	1840.3
1259.85	1754.84
1258.94	1732.57
1258.03	1729.52
1257.12	1718.23
1256.21	1833.19
1255.3	1772.51
1254.39	1692.64
1253.48	1876.11
1252.56	1708.5
1251.65	1743.84
1250.74	1740.79
1249.83	1781.6
1248.92	1696.33
1248	1734.39
1247.09	1624.51
1246.18	1747.48
1245.27	1733.48
1244.35	1719.48
1243.44	1784.88
1242.53	1653.19
1241.61	1776.04
1240.7	1658.08
1239.78	1668.73
1238.87	1723.14
1237.96	1651.73
1237.04	1722.53
1236.13	1724.96
1235.21	1724.66
1234.3	1697.03
1233.38	1691.26
1232.47	1753.8
1231.55	1660.62
1230.64	1676.71
1229.72	1643.66
1228.81	1689.77
1227.89	1629.43
1226.97	1656.43
1226.06	1740.72
1225.14	1546.73
1224.22	1691.01
1223.31	1630.72
1222.39	1714.95
1221.47	1698.3
1220.56	1714.35
1219.64	1697.7
1218.72	1686.5
1217.8	1757.03
1216.89	1647.77
1215.97	1671.99
1215.05	1679.86
1214.13	1668.68
1213.21	1641.17
1212.29	1687.14
1211.37	1692.28
1210.46	1653.9
1209.54	1686.25
1208.62	1680.51
1207.7	1723.71
1206.78	1690.79
1205.86	1761.16
1204.94	1755.41
1204.02	1668.16
1203.1	1695.03
1202.18	1700.16
1201.26	1656.41
1200.34	1732.14
1199.41	1693.83
1198.49	1641.97
1197.57	1671.53
1196.65	1673.94
1195.73	1727.9
1194.81	1695.05
1193.88	1662.21
1192.96	1672.76
1192.04	1699.57
1191.12	1653.2
1190.2	1747.75
1189.27	1668.87
1188.35	1690.24
1187.43	1738.69
1186.5	1605.71
1185.58	1635.2
1184.66	1781.08
1183.73	1548.02
1182.81	1764.22
1181.88	1688.15
1180.96	1671.63
1180.04	1655.1
1179.11	1679.15
1178.19	1784.28
1177.26	1643.41
1176.34	1767.44
1175.41	1707.68
1174.49	1764.11
1173.56	1766.5
1172.63	1712.18
1171.71	1655.17
1170.78	1708.87
1169.86	1703.17
1168.93	1737.95
1168	1772.72
1167.08	1672.59
1166.15	1653.41
1165.22	1798.75
1164.3	1736.41
1163.37	1698.36
1162.44	1787.01
1161.51	1789.39
1160.59	1708.24
1159.66	1791.45
1158.73	1799.21
1157.8	1758.5
1156.87	1871.27
1155.94	1725.57
1155.01	1800.63
1154.09	1757.25
1153.16	1762.32
1152.23	1745.87
1151.3	1845.07
1150.37	1807.1
1149.44	1742.25
1148.51	1793.02
1147.58	1811.51
1146.65	1883.75
1145.72	1789.38
1144.79	1767.57
1143.86	1815.6
1142.92	1820.65
1141.99	1761.26
1141.06	1871.01
1140.13	1849.2
1139.2	1792.52
1138.27	1840.5
1137.34	1818.71
1136.4	1906.9
1135.47	1761.76
1134.54	1892.81
1133.61	1911.24
1132.67	1996.67
1131.74	1942.72
1130.81	1950.41
1129.87	1917.92
1128.94	1936.33
1128.01	2008.28
1127.07	1930.29
1126.14	2015.6
1125.2	2058.06
1124.27	1824.9
1123.34	1867.38
1122.4	1891.12
1121.47	1928.23
1120.53	1893.13
1119.6	1981.01
1118.66	1881.76
1117.73	1942.89
1116.79	1843.68
1115.85	1920.83
1114.92	1856.38
1113.98	1805.31
1113.05	1887.77
1112.11	1834.04
1111.17	1839.05
1110.24	1876.08
1109.3	1870.41
1108.36	1803.39
1107.42	1875.08
1106.49	1906.75
1105.55	1813.09
1104.61	1988.71
1103.67	1967.04
1102.74	1804.13
1101.8	1843.78
1100.86	1942.01
1099.92	1978.96
1098.98	1928.01
1098.04	2047.48
1097.1	1937.97
1096.16	1974.89
1095.22	1942.6
1094.29	1936.93
1093.35	1840.82
1092.41	1901.67
1091.47	1933.24
1090.52	1956.82
1089.58	1826.22
1088.64	1860.45
1087.7	1865.43
1086.76	1966.06
1085.82	1939.14
1084.88	1875.06
1083.94	1890.66
1083	1855.81
1082.05	1927.15
1081.11	1913.53
1080.17	1913.19
1079.23	1912.85
1078.29	1920.47
1077.34	1901.56
1076.4	1824.32
1075.46	1877.02
1074.51	1834.28
1073.57	1881.65
1072.63	1886.62
1071.68	1822.7
1070.74	1875.35
1069.8	1906.79
1068.85	1890.57
1067.91	1924.65
1066.96	1802.54
1066.02	1921.31
1065.07	1944.78
1064.13	1941.79
1063.18	1970.54
1062.24	1983.41
1061.29	1919.6
1060.35	1866.38
1059.4	1903.06
1058.45	1804.94
1057.51	1899.73
1056.56	1849.2
1055.62	1833.02
1054.67	1840.62
1053.72	1885.18
1052.78	1853.16
1051.83	1866.03
1050.88	1781.25
1049.93	1817.87
1048.99	1836.01
1048.04	1846.23
1047.09	1835.35
1046.14	1779.66
1045.19	1797.79
1044.24	1860.73
1043.3	1826.14
1042.35	1833.72
1041.4	1854.46
1040.45	1917.34
1039.5	1901.2
1038.55	1885.06
1037.6	1905.78
1036.65	1813.33
1035.7	1876.15
1034.75	1812.68
1033.8	1814.98
1032.85	1859.37
1031.9	1887.96
1030.95	1835.04
1030	1905.68
1029.04	1784.45
1028.09	1831.43
1027.14	1817.97
1026.19	1770.36
1025.24	1825.2
1024.29	1756.6
1023.33	1764.16
1022.38	1832.09
1021.43	1724.17
1020.48	1831.43
1019.52	1865.21
1018.57	1788.81
1017.62	1728.18
1016.66	1777.68
1015.71	1832.42
1014.75	1777.05
1013.8	1789.83
1012.85	1820.95
1011.89	1747.28
1010.94	1739.11
1009.98	1730.94
1009.03	1869.39
1008.07	1759.11
1007.12	1798.06
1006.16	1855.3
1005.21	1813.11
1004.25	1867.72
1003.3	1867.38
1002.34	1738.92
1001.38	1762.14
1000.43	1808.87
999.47	1800.71
998.513	1816.06
997.557	1857.54
996.599	1776.23
995.642	1786.36
994.685	1822.59
993.727	1720.45
992.769	1756.68
991.811	1829.44
990.853	1732.57
989.895	1784.44
988.937	1784.12
987.978	1815.09
987.019	1767.83
986.06	1749.27
985.101	1743.74
984.142	1766.88
983.182	1829.1
982.223	1797.51
981.263	1820.63
980.303	1752.59
979.343	1681.98
978.382	1762.37
977.422	1696.99
976.461	1756.54
975.5	1784.84
974.539	1859.96
973.578	1750.39
972.616	1700.67
971.655	1819.96
970.693	1759.84
969.731	1834.9
968.769	1860.55
967.807	1758.89
966.845	1745.59
965.882	1786.83
964.919	1869.6
963.956	1760.23
962.993	1822.21
962.03	1772.57
961.066	1878.64
960.103	1800.47
959.139	1797.55
958.175	1815.38
957.211	1825.43
956.246	1755.1
955.282	1822.18
954.317	1808.89
953.352	1857.8
952.387	1782.34
951.422	1784.61
950.457	1825.72
949.491	1815.04
948.526	1882.02
947.56	1811.79
946.594	1795.94
945.627	1811.14
944.661	1772.01
943.694	1769.11
942.728	1859.3
941.761	1830.52
940.794	1819.85
939.826	1837.62
938.859	1863.13
937.891	1829.2
936.923	1813.37
935.955	1813.05
934.987	1786.9
934.019	1820.14
933.05	1794
932.082	1876.26
931.113	1803.67
930.144	1834.31
929.175	1805.6
928.205	1797.54
927.236	1853.94
926.266	1830.41
925.296	1835.23
924.326	1943.14
923.356	1819.11
922.385	1870.31
921.415	1890.58
920.444	1820.7
919.473	1828.1
918.502	1897.28
917.53	1832.59
916.559	1881.15
915.587	1914.26
914.616	1865.04
913.644	1949.58
912.671	1928.65
911.699	1874.31
910.726	1891.97
909.754	1945.6
908.781	1868.16
907.808	1875.53
906.835	1941.98
905.861	1905.67
904.888	1992.63
903.914	1922.95
902.94	1832.77
901.966	1971.02
900.991	1896.25
900.017	1895.91
899.042	1954.56
898.068	1961.9
897.093	1933.34
896.117	1933
895.142	1958.28
894.166	1978.43
893.191	1893.51
892.215	1990.52
891.239	1985.04
890.263	1956.51
889.286	1966.4
888.31	1948.12
887.333	1945.21
886.356	1967.89
885.379	1944.51
884.402	2043.92
883.424	1969.38
882.446	1848.84
881.469	2032.59
880.491	2009.21
879.512	1893.84
878.534	2003.37
877.556	1997.9
876.577	2007.76
875.598	1925.67
874.619	2004.48
873.64	1930.08
872.66	2087.99
871.681	2003.39
870.701	2031.1
869.721	2056.24
868.741	2032.91
867.761	2137.1
866.78	2131.62
865.799	2072.6
864.819	2133.39
863.838	2102.43
862.856	2112.24
861.875	1994.67
860.894	2037.61
859.912	2085.62
858.93	2069.97
857.948	2117.96
856.966	2109.94
855.983	2071.39
855.001	2071.01
854.018	2213.09
853.035	2136.39
852.052	2191.94
851.068	2056.8
850.085	2142.85
849.101	2206
848.117	2073.47
847.133	2167.09
846.149	2062.56
845.165	2052.02
844.18	2196.38
843.195	2188.37
842.21	2086.44
841.225	2093.68
840.24	2128.82
839.254	2039.64
838.269	2143.27
837.283	2033.83
836.297	1975.15
835.311	1969.72
834.324	1992.17
833.338	2098.24
832.351	1966.11
831.364	1996.15
830.377	1990.72
829.39	1980.23
828.403	1969.75
827.415	1966.86
826.427	1971.56
825.439	1973.74
824.451	1963.26
823.463	2043.84
822.474	2015.65
821.485	1936.9
820.497	1949.19
819.508	1991.81
818.518	1945.95
817.529	1938.02
816.539	2008.4
815.55	1932.26
814.56	1997.57
813.569	1949.24
812.579	1948.88
811.589	1903.1
810.598	1885.08
809.607	2003.33
808.616	1846.56
807.625	1873.97
806.633	1926.58
805.642	1883.37
804.65	1956.13
803.658	1978.46
802.666	1940.3
801.674	1942.47
800.681	1932.04
799.689	1929.17
798.696	1966.59
797.703	1933.5
796.71	1978.46
795.716	1935.31
794.723	1902.25
793.729	2007.57
792.735	2007.2
791.741	1959.05
790.747	1973.78
789.752	1905.55
788.758	1998.2
787.763	2035.53
786.768	1876.87
785.773	1954.4
784.777	1984.18
783.782	2016.47
782.786	1948.31
781.79	2018.24
780.794	1977.72
779.798	2035.07
778.801	1994.56
777.804	2006.74
776.808	1986.31
775.811	2081.23
774.813	1975.56
773.816	2007.78
772.819	1982.36
771.821	1979.49
770.823	1981.63
769.825	2018.84
768.827	2000.94
767.828	1950.5
766.829	2000.21
765.831	1922.26
764.832	2039.52
763.832	1996.62
762.833	2036.28
761.833	1938.36
760.834	2063.04
759.834	1987.66
758.834	2019.79
757.833	2004.43
756.833	2079.03
755.832	1968.72
754.831	2093.26
753.83	2050.42
752.829	2070.02
751.828	1962.29
750.826	2061.77
749.825	2053.91
748.823	2061.02
747.821	2045.68
746.818	2112.65
745.816	1940.19
744.813	1989.7
743.81	2041.69
742.807	2058.76
741.804	2105.73
740.801	1970.81
739.797	2035.21
738.793	2089.64
737.789	2084.27
736.785	2093.85
735.781	2061.11
734.776	1926.34
733.772	2062.84
732.767	2064.95
731.762	2106.86
730.757	2091.56
729.751	2001.66
728.746	1968.97
727.74	2048.15
726.734	2020.44
725.728	2089.64
724.721	2071.87
723.715	2051.62
722.708	2023.93
721.701	2063.28
720.694	2105.11
719.687	2032.75
718.679	2163.89
717.672	2061.77
716.664	2041.55
715.656	1999.02
714.648	2068.08
713.639	2080.1
712.631	2126.82
711.622	2099.16
710.613	2051.7
709.604	2147.94
708.595	2073.24
707.585	2107.53
706.576	2074.96
705.566	2096.86
704.556	2106.37
703.546	2157.96
702.535	2098.18
701.525	2078
700.514	2092.46
699.503	2116.81
698.492	2133.73
697.48	2190.19
696.469	2098.34
695.457	2095.49
694.445	2065.46
693.433	2062.61
692.421	2089.4
691.409	2135.93
690.396	2068.88
689.383	2125.27
688.37	2166.84
687.357	2151.63
686.344	2022.95
685.33	2140.98
684.316	2091.26
683.302	2226.49
682.288	2142.26
681.274	2099.97
680.259	2057.69
679.245	2160.8
678.23	2150.54
677.215	2093.5
676.2	2085.73
675.184	2178.9
674.169	2109.58
673.153	2151.03
672.137	2209.69
671.121	2115.8
670.104	2110.49
669.088	2154.37
668.071	2163.81
667.054	2057.7
666.037	2084.36
665.02	2120.84
664.002	2203.99
662.985	2166.74
661.967	2075.46
660.949	2192.95
659.93	2138.53
658.912	2179.87
657.893	2181.92
656.875	2080.91
655.856	2144.32
654.837	2087.51
653.817	2241.63
652.798	2160.3
651.778	2289.84
650.758	2088.42
649.738	2205.67
648.718	2261.62
647.697	2190.16
646.677	2253.44
645.656	2133.03
644.635	2157.12
643.613	2222.82
642.592	2200.39
641.57	2124.12
640.549	2241.17
639.527	2279.9
638.505	2303.93
637.482	2127.45
636.46	2156.39
635.437	2224.44
634.414	2206.92
633.391	2301.81
632.368	2296.5
631.344	2222.8
630.32	2241.93
629.297	2248.84
628.272	2255.75
627.248	2221.16
626.224	2293.97
625.199	2247.18
624.174	2237.01
623.149	2297.57
622.124	2319.1
621.099	2182.13
620.073	2208.55
619.048	2327.56
618.022	2297.89
616.995	2314.52
615.969	2297.05
614.943	2245.48
613.916	2252.37
612.889	2283.6
611.862	2309.96
610.835	2350.9
609.807	2326.14
608.78	2291.65
607.752	2271.77
606.724	2351.6
605.696	2200.42
604.667	2258.35
603.639	2360.02
602.61	2352.29
601.581	2300.84
600.552	2322.27
599.522	2207.7
598.493	2355.41
597.463	2267.58
596.433	2315.7
595.403	2434.19
594.373	2198.38
593.342	2316.85
592.311	2301.87
591.281	2282.04
590.25	2259.79
589.218	2361.19
588.187	2331.67
587.155	2275.51
586.123	2367.15
585.091	2393.36
584.059	2303.31
583.027	2302.88
581.994	2283.09
580.961	2234.25
579.928	2318.55
578.895	2313.28
577.862	2353.98
576.828	2387.41
575.795	2365.2
574.761	2372.01
573.727	2296.63
572.692	2301.04
571.658	2363.45
570.623	2300.19
569.588	2393.98
568.553	2432.18
567.518	2318.23
566.482	2325.05
565.447	2399.45
564.411	2360.39
563.375	2400.97
562.339	2357.1
561.302	2438.68
560.265	2370.7
559.229	2377.49
558.192	2328.84
557.154	2420
556.117	2434.01
555.08	2438.38
554.042	2293.38
553.004	2394.12
551.966	2287.72
550.927	2405.27
549.889	2373.53
548.85	2346.62
547.811	2425.59
546.772	2307.25
545.733	2460.77
544.693	2433.86
543.653	2418.98
542.614	2356.03
541.574	2338.76
540.533	2355.15
539.493	2347.51
538.452	2450.37
537.411	2351.44
536.37	2468.67
535.329	2393.79
534.288	2458.16
533.246	2395.3
532.204	2382.85
531.162	2401.61
530.12	2401.16
529.078	2410.31
528.035	2397.87
526.992	2488.53
525.949	2416.16
524.906	2408.52
523.863	2396.09
522.819	2532.2
521.775	2455.08
520.731	2425.89
519.687	2396.7
518.643	2480.04
517.598	2486.76
516.554	2495.87
515.509	2452.34
514.464	2437.54
513.418	2475.35
512.373	2496.41
511.327	2469.65
510.281	2421.38
509.235	2523.7
508.189	2506.5
507.142	2463.03
506.096	2441.08
505.049	2435.85
504.002	2397.19
502.955	2437.33
501.907	2398.69
500.859	2443.58
499.812	2445.51
498.764	2418.82
497.715	2363.51
496.667	2437
495.618	2388.86
494.569	2424.17
493.52	2457.08
492.471	2478.07
491.422	2375.17
490.372	2446.18
489.323	2410.01
488.273	2285.75
487.222	2423.39
486.172	2368.2
485.121	2550.99
484.071	2491.04
483.02	2423.97
481.969	2494.87
480.917	2477.76
479.866	2451.14
478.814	2524.37
477.762	2438.35
476.71	2402.25
475.657	2527.71
474.605	2436.98
473.552	2467.4
472.499	2538.17
471.446	2376.27
470.393	2485.01
469.339	2472.68
468.286	2541.02
467.232	2414.83
466.178	2478.41
465.123	2546.72
464.069	2527.28
463.014	2481.77
461.959	2519.22
460.904	2530.6
459.849	2722.02
458.793	2600.71
457.738	2609.7
456.682	2545.29
455.626	2497.47
454.569	2568
453.513	2621.95
452.456	2628.56
451.399	2540.55
450.342	2558.99
449.285	2584.52
448.228	2574.59
447.17	2628.47
446.112	2609.07
445.054	2587.32
443.996	2525.41
442.938	2586.35
441.879	2505.58
440.82	2597.19
439.761	2594.35
438.702	2683.55
437.642	2666.53
436.583	2706.14
435.523	2601.84
434.463	2660.32
433.403	2704.62
432.342	2701.76
431.282	2597.54
430.221	2639.48
429.16	2686.11
428.099	2659.69
427.037	2583.82
425.976	2665.76
424.914	2573.44
423.852	2554.12
422.79	2556
421.727	2614.35
420.664	2651.5
419.602	2571.03
418.539	2704.6
417.475	2591.23
416.412	2635.41
415.348	2569.11
414.285	2561.58
413.221	2565.8
412.156	2577.06
411.092	2672.88
410.028	2592.53
408.963	2709.44
407.898	2617.38
406.833	2607.51
405.767	2644.56
404.702	2674.57
403.636	2699.87
402.57	2701.71
401.504	2675.41
400.437	2738.2
399.371	2636.9
398.304	2704.37
397.237	2696.83
396.17	2724.44
395.102	2646.64
394.035	2718.73
392.967	2605.84
391.899	2619.4
390.831	2686.78
389.762	2728.4
388.694	2664.72
387.625	2577.67
386.556	2761.94
385.487	2770.78
384.417	2629.99
383.348	2744.03
382.278	2869.7
381.208	2775.71
380.138	2791.54
379.067	2814.37
377.997	2825.52
376.926	2836.66
375.855	2724.08
374.784	2707.23
373.712	2711.39
372.641	2815.87
371.569	2703.38
370.497	2705.2
369.425	2723.35
368.352	2750.81
367.28	2789.92
366.207	2677.54
365.134	2667.71
364.061	2657.89
362.987	2673.7
361.914	2689.5
360.84	2623.8
359.766	2648.91
358.691	2713.58
357.617	2722.38
356.542	2696.27
355.468	2739.96
354.393	2695.26
353.317	2687.78
352.242	2712.84
351.166	2684.44
350.09	2765.27
349.014	2678.79
347.938	2668.99
346.862	2705.65
345.785	2809.63
344.708	2788.21
343.631	2766.79
342.554	2666.48
341.476	2788.95
340.399	2658.52
339.321	2734.56
338.243	2734.04
337.164	2763.67
336.086	2767.79
335.007	2658.34
333.928	2762.11
332.849	2768.54
331.77	2839.82
330.69	2834.66
329.611	2644.26
328.531	2685.43
327.451	2812.23
326.37	2749.21
325.29	2857.44
324.209	2683.41
323.128	2671.34
322.047	2763.33
320.966	2783.62
319.884	2799.27
318.803	2750.21
317.721	2828.25
316.639	2723.76
315.556	2790.23
314.474	2803.56
313.391	2754.55
312.308	2816.36
311.225	2755.81
310.141	2812.99
309.058	2752.47
307.974	2818.84
306.89	2751.43
305.806	2617.17
304.721	2773.45
303.637	2839.77
302.552	2806.97
301.467	2691.23
300.382	2739.1
299.296	2731.67
298.211	2774.91
297.125	2670.78
296.039	2718.62
294.953	2842.39
293.866	2922.39
292.78	2710.18
291.693	2787.87
290.606	2755.15
289.518	2759.23
288.431	2721.92
287.343	2762.78
286.255	2778.34
285.167	2805.39
284.079	2830.13
282.991	2772.18
281.902	2780.84
280.813	2773.42
279.724	2749.95
278.635	2850.41
277.545	2856.75
276.455	2853.92
275.365	2837.32
274.275	2850.54
273.185	2815.61
272.094	2895.31
271.004	2837.47
269.913	2846.1
268.821	2859.31
267.73	2842.73
266.638	2929.22
265.547	2832.49
264.455	2834.25
263.362	2959.6
262.27	2860.64
261.177	2805.18
260.085	2914.46
258.992	2902.47
257.898	2906.49
256.805	2940.24
255.711	2887.11
254.617	2950.55
253.523	2963.7
252.429	2976.85
251.335	2939.74
250.24	2845.55
249.145	2970.59
248.05	2924.37
246.955	2944.36
245.859	2850.24
244.763	2931.84
243.667	3004.28
242.571	2958.09
241.475	2909.65
240.378	2966.09
239.281	3004.28
238.185	2992.32
237.087	2914.28
235.99	2982.07
234.892	2970.11
233.795	3042.42
232.697	3114.7
231.598	2993.46
230.5	3011.1
229.401	3142.51
228.302	2943.98
227.203	2979.82
226.104	3024.74
225.005	2980.96
223.905	2978.12
222.805	3007.11
221.705	3074.71
220.605	3092.3
219.504	3105.35
218.403	3029.81
217.302	3138.23
216.201	3108.12
215.1	3082.56
213.998	3050.2
212.897	3092.73
211.795	3148.86
210.692	3107.44
209.59	3156.74
208.487	3067.71
207.384	3105.67
206.281	3202.53
205.178	3090.89
204.075	3115.22
202.971	3125.96
201.867	3061.95
200.763	3099.86
199.659	3246.43
198.554	3157.53
197.45	3125.25
196.345	3117.87
195.24	3167.04
194.134	3098.59
193.029	3131.92
191.923	3110.98
190.817	3081
189.711	3125.61
188.604	3068.53
187.498	3156.05
186.391	3094.46
185.284	3066.78
184.177	3151.99
183.069	3094.95
181.962	3074.05
180.854	3114.09
179.746	3048.06
178.637	3135.46
177.529	3101.03
176.42	3050.83
175.311	3144.94
174.202	3200.69
173.093	3236.14
171.983	3140.89
170.873	3158.31
169.763	3216.27
168.653	3294.47
167.543	3156.51
166.432	3338.24
165.321	3272.33
164.21	3345.96
163.099	3183.35
161.988	3243.47
160.876	3263.09
159.764	3284.95
158.652	3248.36
157.54	3265.72
156.427	3366.22
155.314	3340.86
154.201	3275.08
153.088	3310.39
151.975	3368.14
150.861	3338.32
149.748	3465.62
148.634	3420.08
147.519	3462.05
146.405	3400.82
145.29	3505.59
144.175	3460.07
143.06	3582.72
141.945	3465.47
140.829	3579.11
139.714	3553.78
138.598	3548.62
137.482	3601.7
136.365	3560.7
135.249	3582.41
134.132	3626.5
133.015	3536.28
131.898	3656.44
130.78	3628.9
129.663	3831.76
128.545	3795.24
127.427	3807.93
126.309	3742.37
125.19	3857.89
124.071	3850.44
122.952	3939.08
121.833	3902.59
120.714	3977.78
119.594	4059.64
118.475	4016.44
117.355	4180.86
116.234	3959.11
115.114	4052.07
113.993	4120.45
112.873	4043.83
111.752	4196.93
110.63	4211.73
109.509	4043.74
108.387	4000.62
107.265	3975.34
106.143	3834.22
105.021	3764.44
103.898	3563.28
102.775	3538.11
101.652	3421.67
100.529	3300.82
