3201.15	12.6335
3200.56	4.21117
3199.97	25.2632
3199.37	0
3198.78	21.0463
3198.19	37.8776
3197.59	16.832
3197	33.6588
3196.4	21.0336
3195.81	12.6182
3195.21	42.0545
3194.62	21.0241
3194.03	29.4292
3193.43	25.2212
3192.84	42.0291
3192.24	25.2136
3191.65	12.6049
3191.05	33.608
3190.46	16.8015
3189.86	20.9987
3189.26	12.5973
3188.67	0
3188.07	16.7913
3187.48	12.5916
3186.88	16.7862
3186.29	0
3185.69	41.9529
3185.09	20.9733
3184.5	41.9402
3183.9	12.5802
3183.31	16.771
3182.71	20.9606
3182.11	12.5744
3181.52	25.1451
3180.92	37.7119
3180.32	37.7062
3179.73	16.7558
3179.13	37.6948
3178.53	25.1261
3177.94	0
3177.34	12.5592
3176.74	25.1147
3176.14	25.1109
3175.55	0
3174.95	20.9194
3174.35	12.5497
3173.75	41.8261
3173.16	4.18198
3172.56	12.544
3171.96	12.5421
3171.36	8.36016
3170.76	8.3589
3170.17	4.17882
3169.57	16.7127
3168.97	20.8878
3168.37	12.5308
3167.77	12.5289
3167.17	12.527
3166.57	8.35004
3165.98	20.8719
3165.38	25.0425
3164.78	12.5194
3164.18	8.34499
3163.58	4.17186
3162.98	16.6849
3162.38	20.853
3161.78	8.33993
3161.18	0
3160.58	20.8435
3159.98	20.8404
3159.38	16.6698
3158.78	25.0008
3158.18	12.4985
3157.58	24.9933
3156.98	16.6597
3156.38	37.4785
3155.78	29.1456
3155.18	4.16302
3154.58	20.8119
3153.98	20.8088
3153.38	4.16113
3152.78	20.8025
3152.18	20.7993
3151.57	24.9554
3150.97	20.793
3150.37	20.7899
3149.77	20.7867
3149.17	20.7836
3148.57	8.31217
3147.97	8.31091
3147.36	8.30965
3146.76	41.5419
3146.16	12.4607
3145.56	24.9176
3144.96	0
3144.35	16.6067
3143.75	29.0573
3143.15	29.0529
3142.55	16.5991
3141.94	-8.29831
3141.34	4.14852
3140.74	-4.14789
3140.14	16.5891
3139.53	12.4399
3138.93	16.584
3138.33	12.4361
3137.72	4.14475
3137.12	16.5765
3136.52	12.4305
3135.91	29
3135.31	12.4267
3134.71	28.9912
3134.1	4.14097
3133.5	24.8421
3132.9	20.6986
3132.29	12.4173
3131.69	24.8308
3131.08	12.4135
3130.48	0
3129.87	8.27315
3129.27	24.8157
3128.67	66.1651
3128.06	16.5388
3127.46	20.6703
3126.85	20.6672
3126.25	57.8593
3125.64	4.13218
3125.04	20.6578
3124.43	16.5237
3123.83	0
3123.22	16.5187
3122.62	4.12904
3122.01	0
3121.4	24.7667
3120.8	28.8901
3120.19	0
3119.59	4.1259
3118.98	33.0022
3118.37	45.3712
3117.77	8.24805
3117.16	24.7404
3116.56	28.8594
3115.95	12.3664
3115.34	24.7291
3114.74	20.6044
3114.13	20.6013
3113.52	32.9571
3112.92	8.23802
3112.31	12.3551
3111.7	32.9421
3111.09	37.0542
3110.49	8.23301
3109.88	0
3109.27	0
3108.66	20.5731
3108.06	12.342
3107.45	24.6802
3106.84	41.1275
3106.23	28.7849
3105.62	20.5575
3105.02	16.4435
3104.41	8.22049
3103.8	36.9866
3103.19	28.763
3102.58	12.3251
3101.97	-8.21549
3101.37	-4.10712
3100.76	20.5325
3100.15	24.6352
3099.54	16.421
3098.93	8.20924
3098.32	32.832
3097.71	12.3101
3097.1	0
3096.49	20.5106
3095.88	24.609
3095.27	-16.4035
3094.66	12.3007
3094.05	28.6974
3093.44	16.396
3092.83	4.09837
3092.22	12.2932
3091.61	36.8741
3091	32.772
3090.39	16.3835
3089.78	24.5715
3089.17	20.4731
3088.56	16.376
3087.95	8.18676
3087.34	12.2783
3086.73	4.09213
3086.12	24.5491
3085.51	24.5453
3084.9	40.9026
3084.28	8.17928
3083.67	0
3083.06	8.17679
3082.45	4.08777
3081.84	24.5229
3081.23	8.17305
3080.61	8.1718
3080	12.2558
3079.39	24.5079
3078.78	8.16806
3078.17	0
3077.55	-16.3311
3076.94	12.2465
3076.33	12.2446
3075.72	24.4855
3075.1	32.6424
3074.49	8.15935
3073.88	4.07905
3073.27	24.4706
3072.65	4.07781
3072.04	12.2316
3071.43	24.4594
3070.81	8.15188
3070.2	4.07532
3069.59	40.747
3068.97	8.14815
3068.36	32.5876
3067.74	36.6555
3067.13	12.2166
3066.52	32.5727
3065.9	12.2129
3065.29	28.4924
3064.67	8.13945
3064.06	24.4146
3063.44	0
3062.83	24.4072
3062.22	8.13448
3061.6	16.2665
3060.99	12.198
3060.37	16.2615
3059.76	32.5181
3059.14	28.449
3058.53	12.1905
3057.91	12.1887
3057.29	32.4982
3056.68	20.3083
3056.06	16.2441
3055.45	32.4833
3054.83	0
3054.22	16.2367
3053.6	4.05855
3052.98	0
3052.37	4.05731
3051.75	20.2835
3051.14	-20.2804
3050.52	8.11091
3049.9	12.1645
3049.29	-16.2169
3048.67	0
3048.05	4.05297
3047.44	28.3665
3046.82	36.4656
3046.2	20.2556
3045.58	16.202
3044.97	12.1496
3044.35	56.6896
3043.73	16.1946
3043.11	40.4802
3042.5	8.0948
3041.88	12.1403
3041.26	28.3231
3040.64	20.2277
3040.03	28.3145
3039.41	20.2215
3038.79	36.3932
3038.17	32.3446
3037.55	8.0849
3036.93	8.08367
3036.31	12.1236
3035.7	8.08119
3035.08	16.1599
3034.46	24.2362
3033.84	16.155
3033.22	16.1525
3032.6	20.1875
3031.98	8.07378
3031.36	48.4352
3030.74	12.107
3030.12	24.2102
3029.5	-8.06883
3028.88	36.3042
3028.26	32.2655
3027.64	24.1954
3027.02	16.1278
3026.4	8.06266
3025.78	48.3686
3025.16	8.06019
3024.54	20.1474
3023.92	16.1154
3023.3	48.3389
3022.68	32.221
3022.06	24.1621
3021.44	20.132
3020.82	12.0773
3020.2	20.1258
3019.58	28.1718
3018.95	24.1436
3018.33	48.2797
3017.71	28.1589
3017.09	12.0662
3016.47	24.1288
3015.85	8.04169
3015.22	40.2023
3014.6	56.2746
3013.98	28.133
3013.36	12.0551
3012.74	20.0888
3012.11	48.2058
3011.49	32.1323
3010.87	36.1433
3010.25	8.0306
3009.62	40.1469
3009	0
3008.38	36.1211
3007.76	24.077
3007.13	60.1834
3006.51	12.0348
3005.89	4.01099
3005.26	28.0727
3004.64	24.0586
3004.02	20.0457
3003.39	48.1024
3002.77	40.0792
3002.14	36.0657
3001.52	12.0201
3000.9	32.0486
3000.27	4.00546
2999.65	20.0242
2999.02	40.0423
2998.4	32.0289
2997.77	28.021
2997.15	24.0143
2996.52	24.0106
2995.9	28.0081
2995.28	8.00109
2994.65	27.9995
2994.03	19.9966
2993.4	59.9806
2992.77	39.9809
2992.15	39.9748
2991.52	59.9529
2990.9	43.9587
2990.27	51.9433
2989.65	55.9303
2989.02	43.9385
2988.39	23.9628
2987.77	27.9523
2987.14	43.9183
2986.52	19.9598
2985.89	55.8788
2985.26	39.9073
2984.64	47.8814
2984.01	43.8845
2983.38	47.8667
2982.76	59.8242
2982.13	47.852
2981.5	39.8705
2980.88	55.8102
2980.25	35.8724
2979.62	55.793
2978.99	67.7382
2978.37	55.7759
2977.74	67.7174
2977.11	35.8449
2976.48	51.768
2975.86	55.7416
2975.23	55.733
2974.6	23.8819
2973.97	51.7362
2973.34	39.7909
2972.71	43.7633
2972.09	47.7344
2971.46	63.6361
2970.83	59.6497
2970.2	23.8562
2969.57	39.7542
2968.94	27.8237
2968.31	51.6646
2967.68	55.6302
2967.05	59.5947
2966.43	31.7789
2965.8	71.4916
2965.17	43.6826
2964.54	71.4696
2963.91	47.6391
2963.28	63.509
2962.65	67.4679
2962.02	47.6171
2961.39	55.5447
2960.76	35.7018
2960.13	51.5614
2959.5	43.6221
2958.87	83.2658
2958.23	55.502
2957.6	47.5658
2956.97	67.3745
2956.34	23.7756
2955.71	31.6959
2955.08	47.5365
2954.45	63.3723
2953.82	43.5617
2953.19	87.11
2952.55	75.2198
2951.92	43.5416
2951.29	31.6617
2950.66	43.5282
2950.03	35.6085
2949.4	59.3383
2948.76	59.3292
2948.13	59.3201
2947.5	90.9434
2946.87	59.3018
2946.23	55.3398
2945.6	59.2835
2944.97	35.5646
2944.34	75.0693
2943.7	59.2561
2943.07	51.3474
2942.44	67.1362
2941.8	63.1773
2941.17	63.1675
2940.54	71.0525
2939.9	59.2013
2939.27	51.2999
2938.64	102.584
2938	71.0087
2937.37	43.3875
2936.74	55.212
2936.1	78.8621
2935.47	78.8499
2934.83	59.1283
2934.2	63.0605
2933.57	59.1101
2932.93	82.7414
2932.3	63.0313
2931.66	90.5935
2931.03	78.7648
2930.39	70.8774
2929.76	66.9295
2929.12	74.792
2928.49	82.6521
2927.85	59.0281
2927.22	55.0844
2926.58	78.6798
2925.94	47.2006
2925.31	31.4622
2924.67	58.9825
2924.04	51.1103
2923.4	39.3096
2922.77	58.9552
2922.13	47.1569
2921.49	66.7953
2920.86	62.8565
2920.22	39.2792
2919.58	58.9097
2918.95	51.0472
2918.31	54.9654
2917.67	54.957
2917.04	54.9485
2916.4	51.0157
2915.76	70.6262
2915.12	19.6154
2914.49	62.7595
2913.85	58.8279
2913.21	50.9763
2912.57	47.0478
2911.94	39.2004
2911.3	54.8721
2910.66	39.1883
2910.02	31.3458
2909.38	31.341
2908.75	54.8382
2908.11	82.2446
2907.47	70.4845
2906.83	19.576
2906.19	39.1459
2905.55	62.6238
2904.92	39.1338
2904.28	39.1278
2903.64	66.507
2903	54.762
2902.36	35.1987
2901.72	43.014
2901.08	58.6463
2900.44	58.6373
2899.8	62.5367
2899.16	58.6191
2898.52	58.6101
2897.88	39.0673
2897.24	54.6858
2896.6	74.205
2895.96	35.1443
2895.32	54.6604
2894.68	78.0743
2894.04	35.128
2893.4	54.6351
2892.76	46.8228
2892.12	54.6182
2891.48	42.9076
2890.84	66.3015
2890.19	66.2913
2889.55	35.0899
2888.91	54.5759
2888.27	50.6698
2887.63	62.3532
2886.99	58.447
2886.35	70.1256
2885.7	54.5337
2885.06	46.7359
2884.42	58.4109
2883.78	58.4018
2883.14	50.6071
2882.49	54.4915
2881.85	54.483
2881.21	62.2567
2880.57	31.1235
2879.92	58.3476
2879.28	58.3385
2878.64	62.2181
2877.99	54.4324
2877.35	66.0863
2876.71	46.6419
2876.07	31.0898
2875.42	38.8562
2874.78	54.3903
2874.13	50.4974
2873.49	54.3734
2872.85	54.365
2872.2	66.0044
2871.56	27.1741
2870.92	38.8141
2870.27	50.4505
2869.63	23.2812
2868.98	50.4348
2868.34	42.669
2867.69	19.392
2867.05	38.778
2866.4	27.1404
2865.76	34.8894
2865.11	42.636
2864.47	34.8785
2863.82	34.8731
2863.18	61.9871
2862.53	46.4831
2861.89	50.3489
2861.24	23.2343
2860.6	46.4615
2859.95	38.7119
2859.3	42.5765
2858.66	15.48
2858.01	30.9551
2857.37	11.6064
2856.72	15.4727
2856.07	58.0138
2855.43	15.4679
2854.78	50.263
2854.13	19.3289
2853.49	19.3259
2852.84	19.3229
2852.19	27.0479
2851.55	23.1803
2850.9	38.6279
2850.25	19.3109
2849.6	50.2006
2848.96	34.7489
2848.31	19.3019
2847.66	38.5979
2847.01	27.0143
2846.37	30.8687
2845.72	23.1479
2845.07	38.5739
2844.42	30.8543
2843.77	42.4181
2843.12	30.8448
2842.48	0
2841.83	19.272
2841.18	11.5614
2840.53	42.3852
2839.88	34.6734
2839.23	19.26
2838.58	30.8112
2837.93	46.2097
2837.28	34.6519
2836.63	30.7969
2835.99	15.396
2835.34	34.6357
2834.69	19.2391
2834.04	34.6249
2833.39	11.5398
2832.74	15.3841
2832.09	0
2831.44	34.6034
2830.79	34.598
2830.13	7.68725
2829.48	23.0582
2828.83	7.68486
2828.18	34.5765
2827.53	26.8887
2826.88	26.8845
2826.23	23.0402
2825.58	46.0733
2824.93	38.3885
2824.28	34.5442
2823.62	19.1883
2822.97	42.2076
2822.32	7.67292
2821.67	11.5076
2821.02	34.5174
2820.37	11.504
2819.71	19.1704
2819.06	23.0008
2818.41	0
2817.76	38.3228
2817.11	15.3267
2816.45	30.6487
2815.8	19.1525
2815.15	15.3196
2814.49	15.3172
2813.84	22.9722
2813.19	22.9686
2812.53	38.2751
2811.88	26.7884
2811.23	11.479
2810.57	19.1286
2809.92	22.9508
2809.27	19.1227
2808.61	11.4718
2807.96	34.4101
2807.31	26.7592
2806.65	22.9329
2806	22.9293
2805.34	7.64192
2804.69	7.64072
2804.03	0
2803.38	30.5534
2802.73	7.63715
2802.07	57.2697
2801.42	26.7217
2800.76	11.4504
2800.11	7.63239
2799.45	15.2624
2798.79	19.075
2798.14	19.0721
2797.48	3.81382
2796.83	3.81322
2796.17	7.62526
2795.52	38.1203
2794.86	22.8686
2794.2	11.4325
2793.55	15.241
2792.89	30.4773
2792.24	3.80906
2791.58	7.61694
2790.92	34.2709
2790.27	30.4582
2789.61	34.2602
2788.95	15.2244
2788.3	15.222
2787.64	34.2441
2786.98	15.2172
2786.32	30.4297
2785.67	19.0156
2785.01	22.8152
2784.35	15.2077
2783.69	22.8081
2783.04	30.406
2782.38	15.2006
2781.72	45.5948
2781.06	15.1959
2780.4	30.387
2779.75	22.7867
2779.09	-3.79719
2778.43	18.983
2777.77	34.1641
2777.11	26.5679
2776.45	34.1534
2775.79	22.7654
2775.14	34.1427
2774.48	34.1374
2773.82	11.3774
2773.16	3.79186
2772.5	7.58253
2771.84	11.372
2771.18	15.1603
2770.52	11.3685
2769.86	30.3112
2769.2	34.0947
2768.54	0
2767.88	53.0197
2767.22	7.57306
2766.56	11.3578
2765.9	41.6388
2765.24	15.139
2764.58	7.56833
2763.92	26.485
2763.26	30.2638
2762.6	15.1296
2761.93	18.909
2761.27	26.4684
2760.61	18.9031
2759.95	45.3603
2759.29	37.7943
2758.63	18.8942
2757.97	26.4478
2757.3	18.8883
2756.64	7.55414
2755.98	41.5413
2755.32	15.1035
2754.66	30.2024
2753.99	11.3241
2753.33	18.8706
2752.67	18.8676
2752.01	30.1835
2751.34	22.6341
2750.68	11.3153
2750.02	11.3135
2749.35	15.0823
2748.69	37.6998
2748.03	18.847
2747.36	18.844
2746.7	37.6821
2746.04	22.6057
2745.37	22.6022
2744.71	48.9638
2744.05	18.8293
2743.38	33.8874
2742.72	33.8821
2742.05	11.2923
2741.39	18.8175
2740.73	48.9178
2740.06	33.8609
2739.4	52.6642
2738.73	22.5668
2738.07	48.8871
2737.4	30.0797
2736.74	30.075
2736.07	11.2763
2735.41	18.791
2734.74	15.0304
2734.08	3.75702
2733.41	33.8078
2732.74	33.8026
2732.08	18.7763
2731.41	45.0559
2730.75	22.5244
2730.08	45.0418
2729.42	22.5174
2728.75	26.2662
2728.08	30.0138
2727.42	18.7557
2726.75	30.0044
2726.08	33.7496
2725.42	41.243
2724.75	33.739
2724.08	26.2373
2723.41	14.9904
2722.75	22.4821
2722.08	33.7179
2721.41	29.9667
2720.75	18.7263
2720.08	22.468
2719.41	22.4645
2718.74	22.4609
2718.07	22.4574
2717.41	29.9385
2716.74	14.9669
2716.07	11.2234
2715.4	18.7028
2714.73	33.6597
2714.06	14.9575
2713.4	14.9552
2712.73	18.691
2712.06	7.47524
2711.39	22.4222
2710.72	41.1009
2710.05	14.9434
2709.38	22.4117
2708.71	56.0203
2708.04	22.4046
2707.37	14.9341
2706.7	37.3293
2706.03	26.1264
2705.36	29.8541
2704.69	22.387
2704.02	18.6529
2703.35	33.57
2702.68	18.6471
2702.01	11.1865
2701.34	22.3695
2700.67	11.183
2700	18.6354
2699.33	18.6324
2698.66	3.7259
2697.99	33.5278
2697.32	26.0731
2696.65	14.8966
2695.97	26.0649
2695.3	37.2297
2694.63	40.9463
2693.96	14.8872
2693.29	22.3273
2692.62	40.927
2691.94	29.7604
2691.27	18.5973
2690.6	22.3133
2689.93	26.0281
2689.25	11.1531
2688.58	22.3027
2687.91	11.1496
2687.24	22.2957
2686.56	22.2922
2685.89	18.5739
2685.22	7.4284
2684.54	33.4226
2683.87	14.8521
2683.2	14.8498
2682.52	14.8475
2681.85	18.5564
2681.18	18.5535
2680.5	25.9708
2679.83	3.70953
2679.15	29.6716
2678.48	11.1251
2677.81	25.9544
2677.13	3.70719
2676.46	40.7727
2675.78	14.8241
2675.11	11.1163
2674.43	-7.40972
2673.76	0
2673.08	14.8148
2672.41	29.6249
2671.73	14.8101
2671.06	33.3175
2670.38	25.9095
2669.71	18.5039
2669.03	18.501
2668.36	14.7985
2667.68	29.5922
2667	22.1907
2666.33	29.5829
2665.65	25.881
2664.97	18.4835
2664.3	3.69612
2663.62	18.4777
2662.95	29.5596
2662.27	33.2493
2661.59	22.1627
2660.92	29.5457
2660.24	22.1557
2659.56	18.4602
2658.88	25.8402
2658.21	18.4544
2657.53	11.0709
2656.85	7.37943
2656.17	29.5131
2655.5	29.5084
2654.82	3.68797
2654.14	14.7496
2653.46	22.1208
2652.78	7.37245
2652.11	7.37129
2651.43	47.9058
2650.75	0
2650.07	14.7356
2649.39	14.7333
2648.71	14.731
2648.03	22.0929
2647.35	25.771
2646.68	14.724
2646	33.1237
2645.32	18.3992
2644.64	40.4718
2643.96	7.35735
2643.28	22.0686
2642.6	25.7426
2641.92	40.4463
2641.24	33.0872
2640.56	44.1093
2639.88	36.7519
2639.2	25.7223
2638.52	33.0663
2637.84	33.0611
2637.16	14.6915
2636.47	14.6892
2635.79	29.3737
2635.11	40.3824
2634.43	18.3528
2633.75	36.6997
2633.07	14.6776
2632.39	25.6817
2631.71	7.33647
2631.02	14.6706
2630.34	22.0024
2629.66	25.6655
2628.98	36.6592
2628.3	14.6613
2627.61	10.9943
2626.93	29.3134
2626.25	18.318
2625.57	25.6411
2624.89	0
2624.2	25.633
2623.52	29.2903
2622.84	29.2856
2622.15	18.3006
2621.47	14.6382
2620.79	36.5897
2620.1	47.5591
2619.42	7.31562
2618.74	21.9434
2618.05	14.6266
2617.37	18.2804
2616.69	25.5885
2616	36.5492
2615.32	32.8891
2614.63	43.8452
2613.95	18.2659
2613.26	3.65261
2612.58	21.9122
2611.9	29.2116
2611.21	10.9526
2610.53	21.9018
2609.84	32.8475
2609.16	29.1931
2608.47	3.64856
2607.78	7.29597
2607.1	25.5319
2606.41	32.8215
2605.73	21.8775
2605.04	25.5197
2604.36	14.5804
2603.67	25.5117
2602.98	36.4395
2602.3	29.147
2601.61	3.64279
2600.93	25.4955
2600.24	18.2082
2599.55	14.5642
2598.87	29.1239
2598.18	10.9197
2597.49	18.1967
2596.81	0
2596.12	7.27636
2595.43	25.4632
2594.74	36.3703
2594.06	7.2729
2593.37	10.9076
2592.68	36.353
2591.99	25.4431
2591.3	18.1707
2590.62	14.5343
2589.93	21.798
2589.24	25.4269
2588.55	21.7911
2587.86	18.1563
2587.17	29.0455
2586.49	18.1506
2585.8	10.8886
2585.11	14.5159
2584.42	14.5136
2583.73	7.25563
2583.04	25.3907
2582.35	36.2666
2581.66	58.0174
2580.97	3.62551
2580.28	10.8748
2579.59	10.8731
2578.9	14.4952
2578.21	36.2321
2577.52	3.62264
2576.83	14.4883
2576.14	3.62149
2575.45	36.2092
2574.76	14.4814
2574.07	-3.61977
2573.38	10.8576
2572.69	25.3303
2572	43.4165
2571.31	18.0873
2570.62	14.4676
2569.93	18.0816
2569.23	3.61575
2568.54	18.0759
2567.85	25.3022
2567.16	14.4561
2566.47	7.2269
2565.77	18.0644
2565.08	25.2861
2564.39	28.8938
2563.7	21.6669
2563.01	3.61058
2562.31	25.2701
2561.62	14.4377
2560.93	43.3063
2560.24	21.6497
2559.54	7.21543
2558.85	32.4643
2558.16	21.6394
2557.46	14.424
2556.77	46.8705
2556.08	14.4194
2555.38	18.0214
2554.69	50.4519
2553.99	10.8094
2553.3	0
2552.61	25.2139
2551.91	21.6085
2551.22	21.6051
2550.52	25.2019
2549.83	21.5982
2549.13	14.3965
2548.44	14.3942
2547.75	7.19596
2547.05	21.5844
2546.36	14.3873
2545.66	14.3851
2544.96	7.19138
2544.27	35.9512
2543.57	25.1618
2542.88	35.9398
2542.18	32.3406
2541.49	21.557
2540.79	35.9226
2540.09	39.5086
2539.4	17.9556
2538.7	21.5433
2538.01	21.5399
2537.31	17.947
2536.61	35.8883
2535.92	14.353
2535.22	14.3508
2534.52	35.8712
2533.83	28.6924
2533.13	10.7579
2532.43	10.7562
2531.73	14.3393
2531.04	14.3371
2530.34	46.588
2529.64	21.4987
2528.94	21.4953
2528.24	21.4919
2527.55	10.7442
2526.85	35.8084
2526.15	25.0619
2525.45	28.6376
2524.75	32.2122
2524.05	39.3642
2523.36	17.8899
2522.66	-3.57742
2521.96	21.4611
2521.26	17.8814
2520.56	25.03
2519.86	21.4508
2519.16	-3.57457
2518.46	7.148
2517.76	46.4546
2517.06	21.4372
2516.36	7.14458
2515.66	35.7172
2514.96	53.5673
2514.26	28.5647
2513.56	17.8501
2512.86	14.2778
2512.16	14.2755
2511.46	21.4098
2510.76	17.8387
2510.06	21.403
2509.36	10.6998
2508.66	17.8302
2507.96	24.9582
2507.25	32.084
2506.55	35.6432
2505.85	35.6376
2505.15	24.9423
2504.45	17.8131
2503.75	10.6861
2503.04	46.2993
2502.34	39.17
2501.64	32.0431
2500.94	28.4782
2500.24	35.5921
2499.53	49.821
2498.83	28.4646
2498.13	32.0175
2497.43	14.2277
2496.72	24.8946
2496.02	24.8906
2495.32	35.5523
2494.61	17.7733
2493.91	14.2164
2493.21	28.4282
2492.5	21.3178
2491.8	10.6572
2491.09	28.4146
2490.39	24.8588
2489.69	14.2028
2488.98	21.3007
2488.28	0
2487.57	35.4899
2486.87	7.09685
2486.16	24.835
2485.46	7.09458
2484.75	28.3738
2484.05	31.9154
2483.34	35.4559
2482.64	28.3602
2481.93	46.0779
2481.23	28.3511
2480.52	24.8033
2479.82	24.7993
2479.11	14.1688
2478.41	0
2477.7	38.9516
2476.99	17.7025
2476.29	35.3992
2475.58	17.6968
2474.87	21.2328
2474.17	31.844
2473.46	21.226
2472.75	17.6855
2472.05	17.6826
2471.34	21.2158
2470.63	21.2124
2469.93	21.209
2469.22	17.6713
2468.51	24.7359
2467.8	42.3976
2467.1	31.7931
2466.39	14.128
2465.68	31.7829
2464.97	31.7779
2464.26	10.5909
2463.56	35.2974
2462.85	14.1167
2462.14	21.1717
2461.43	14.1122
2460.72	10.5824
2460.01	10.5808
2459.3	21.1581
2458.59	10.5774
2457.89	17.6261
2457.18	3.52466
2456.47	28.1928
2455.76	42.2824
2455.05	21.1378
2454.34	10.5672
2453.63	24.6529
2452.92	49.2978
2452.21	35.2071
2451.5	24.641
2450.79	14.0783
2450.08	17.5951
2449.37	52.7768
2448.66	28.1431
2447.95	14.0693
2447.23	28.1341
2446.52	28.1296
2445.81	7.03127
2445.1	52.7261
2444.39	24.6015
2443.68	10.5418
2442.97	-3.51338
2442.25	24.5897
2441.54	17.5613
2440.83	35.1169
2440.12	31.6001
2439.41	17.5528
2438.69	28.08
2437.98	45.6227
2437.27	38.5976
2436.56	0
2435.84	42.093
2435.13	17.5359
2434.42	14.0265
2433.71	31.5545
2432.99	21.033
2432.28	28.0395
2431.57	17.5219
2430.85	38.5419
2430.14	14.013
2429.43	31.5242
2428.71	31.5191
2428	21.0094
2427.28	24.507
2426.57	3.50044
2425.85	13.9995
2425.14	31.4938
2424.43	38.4863
2423.71	34.9819
2423	41.9715
2422.28	3.49707
2421.57	34.965
2420.85	38.4554
2420.14	20.9723
2419.42	31.4534
2418.71	31.4483
2417.99	24.4559
2417.27	31.4382
2416.56	55.8812
2415.84	27.9361
2415.13	20.9487
2414.41	6.98178
2413.69	13.9613
2412.98	24.4284
2412.26	27.9137
2411.54	34.8865
2410.83	45.3451
2410.11	17.4376
2409.39	10.4609
2408.68	24.4048
2407.96	31.3726
2407.24	20.9117
2406.52	10.4542
2405.81	27.8733
2405.09	10.4508
2404.37	38.3135
2403.65	24.3774
2402.94	48.7469
2402.22	20.8882
2401.5	6.9616
2400.78	20.8814
2400.06	17.3984
2399.34	24.3539
2398.63	48.6999
2397.91	24.346
2397.19	6.95488
2396.47	31.2919
2395.75	-3.47632
2395.03	41.7092
2394.31	17.376
2393.59	24.3225
2392.87	34.7409
2392.15	20.8412
2391.43	24.3108
2390.71	31.2517
2389.99	17.3592
2389.27	0
2388.55	27.7658
2387.83	31.2315
2387.11	31.2265
2386.39	31.2215
2385.67	31.2165
2384.95	24.2756
2384.23	24.2716
2383.51	41.6018
2382.79	20.7976
2382.06	24.2599
2381.34	17.3257
2380.62	13.8583
2379.9	6.92805
2379.18	-3.46347
2378.46	6.92582
2377.73	24.2365
2377.01	27.6944
2376.29	41.5348
2375.57	27.6854
2374.84	48.4417
2374.12	20.7574
2373.4	44.9671
2372.68	24.2091
2371.95	41.4947
2371.23	24.2013
2370.51	31.111
2369.78	13.8249
2369.06	34.5566
2368.34	20.7306
2367.61	17.2727
2366.89	31.0859
2366.16	24.174
2365.44	24.1701
2364.72	27.6185
2363.99	27.6141
2363.27	24.1584
2362.54	41.4077
2361.82	24.1506
2361.09	27.5963
2360.37	13.7959
2359.64	34.4842
2358.92	41.3743
2358.19	37.9204
2357.47	20.6805
2356.74	20.6772
2356.02	31.0107
2355.29	17.2254
2354.57	34.4452
2353.84	27.5517
2353.11	10.3302
2352.39	20.6571
2351.66	34.423
2350.94	30.9757
2350.21	55.059
2349.48	30.9657
2348.76	34.4008
2348.03	24.0766
2347.3	30.9507
2346.57	24.0689
2345.85	3.43785
2345.12	20.6238
2344.39	17.1837
2343.67	24.0533
2342.94	20.6138
2342.21	27.4806
2341.48	24.0416
2340.75	30.9057
2340.03	24.0339
2339.3	24.03
2338.57	30.8907
2337.84	41.1809
2337.11	27.4495
2336.38	-3.43064
2335.65	34.3008
2334.93	27.4362
2334.2	34.2897
2333.47	41.141
2332.74	3.42786
2332.01	47.9823
2331.28	37.6943
2330.55	44.5406
2329.82	27.4052
2329.09	23.9756
2328.36	34.2454
2327.63	23.9679
2326.9	27.3874
2326.17	10.2686
2325.44	20.5339
2324.71	44.483
2323.98	23.9485
2323.25	27.3653
2322.51	34.2011
2321.78	41.0346
2321.05	27.352
2320.32	6.83689
2319.59	13.6716
2318.86	41.0081
2318.13	34.1678
2317.39	40.9948
2316.66	27.3254
2315.93	40.9815
2315.2	23.902
2314.47	23.8981
2313.73	20.4808
2313	6.82583
2312.27	40.9483
2311.54	27.2945
2310.8	23.8788
2310.07	34.107
2309.34	23.871
2308.6	57.9631
2307.87	30.6814
2307.14	37.4934
2306.4	30.6714
2305.67	40.8886
2304.94	10.2205
2304.2	30.6565
2303.47	17.0286
2302.73	30.6466
2302	44.2601
2301.27	37.4448
2300.53	17.0176
2299.8	17.0148
2299.06	27.2193
2298.33	23.8131
2297.59	37.4144
2296.86	30.6069
2296.12	27.2017
2295.39	37.3962
2294.65	33.9911
2293.91	0
2293.18	6.79601
2292.44	37.372
2291.71	20.3814
2290.97	23.7745
2290.23	20.3748
2289.5	16.9762
2288.76	44.1311
2288.03	23.759
2287.29	0
2286.55	16.9652
2285.81	47.4949
2285.08	16.9597
2284.34	27.1311
2283.6	10.1725
2282.87	33.9029
2282.13	30.5077
2281.39	54.227
2280.65	33.8864
2279.92	44.0452
2279.18	44.038
2278.44	20.3219
2277.7	37.2508
2276.96	6.77178
2276.22	27.0827
2275.49	20.3087
2274.75	27.0739
2274.01	27.0695
2273.27	23.682
2272.53	43.9736
2271.79	43.9665
2271.05	47.3408
2270.31	27.0475
2269.57	13.5216
2268.83	40.5581
2268.09	40.5515
2267.35	30.4087
2266.61	20.2691
2265.87	67.5528
2265.13	30.3938
2264.39	54.0247
2263.65	50.6399
2262.91	6.75089
2262.17	23.6243
2261.43	23.6204
2260.69	26.9904
2259.95	40.479
2259.21	30.3543
2258.46	47.2101
2257.72	26.9728
2256.98	30.3395
2256.24	37.0756
2255.5	30.3296
2254.76	33.6941
2254.01	20.2132
2253.27	30.3148
2252.53	26.9421
2251.79	37.0394
2251.04	43.7667
2250.3	30.2951
2249.56	47.118
2248.82	10.0951
2248.07	33.6448
2247.33	37.0032
2246.59	10.0901
2245.84	23.5398
2245.1	33.6229
2244.36	16.8087
2243.61	30.2507
2242.87	33.6064
2242.12	43.6812
2241.38	36.955
2240.64	30.231
2239.89	23.5092
2239.15	36.937
2238.4	20.1442
2237.66	43.6386
2236.91	43.6314
2236.17	40.2686
2235.42	46.9724
2234.68	30.1916
2233.93	50.3112
2233.19	46.9494
2232.44	33.5298
2231.69	46.9341
2230.95	23.4632
2230.2	6.70269
2229.46	50.262
2228.71	23.4518
2227.96	26.7976
2227.22	40.1899
2226.47	50.2292
2225.72	23.4365
2224.98	30.1277
2224.23	16.7349
2223.48	40.1571
2222.74	26.767
2221.99	26.7627
2221.24	30.1031
2220.49	16.7212
2219.75	46.8118
2219	60.1767
2218.25	26.7409
2217.5	36.7627
2216.75	36.7567
2216.01	33.4097
2215.26	20.0425
2214.51	43.4184
2213.76	33.3933
2213.01	30.0491
2212.26	26.7059
2211.51	16.6885
2210.76	26.6972
2210.02	30.0295
2209.27	26.6885
2208.52	50.0328
2207.77	20.0098
2207.02	26.6754
2206.27	26.6711
2205.52	33.3334
2204.77	23.3296
2204.02	29.9903
2203.27	16.6585
2202.52	29.9805
2201.77	33.3062
2201.01	49.9511
2200.26	36.6248
2199.51	63.2507
2198.76	39.9413
2198.01	26.6232
2197.26	36.6009
2196.51	39.9217
2195.76	26.6101
2195	46.5601
2194.25	59.8532
2193.5	33.2463
2192.75	39.8891
2192	16.6177
2191.24	36.553
2190.49	46.5144
2189.74	36.5411
2188.99	49.8206
2188.23	16.6041
2187.48	46.484
2186.73	36.5172
2185.97	29.8728
2185.22	49.7798
2184.47	46.4536
2183.71	29.8581
2182.96	19.9022
2182.21	26.5319
2181.45	33.1594
2180.7	26.5232
2179.94	33.1485
2179.19	26.5145
2178.44	49.7065
2177.68	13.2529
2176.93	29.8142
2176.17	39.7457
2175.42	26.4928
2174.66	33.1106
2173.91	26.4841
2173.15	49.6496
2172.4	23.166
2171.64	46.3244
2170.88	26.4668
2170.13	52.9249
2169.37	42.9944
2168.62	29.7605
2167.86	42.9803
2167.1	36.362
2166.35	19.8306
2165.59	26.4364
2164.83	39.6481
2164.08	46.2486
2163.32	29.7264
2162.56	29.7215
2161.81	23.1129
2161.05	19.8078
2160.29	29.7069
2159.53	46.2031
2158.78	39.5962
2158.02	49.4871
2157.26	52.7776
2156.5	49.4709
2155.75	32.9752
2154.99	39.5637
2154.23	39.5572
2153.47	26.3672
2152.71	19.7721
2151.95	39.5378
2151.19	42.8255
2150.43	49.406
2149.68	46.1047
2148.92	32.9265
2148.16	59.258
2147.4	49.3735
2146.64	23.0372
2145.88	32.9049
2145.12	39.4794
2144.36	29.6047
2143.6	42.7553
2142.84	39.4599
2142.08	32.8779
2141.32	42.7342
2140.56	36.1538
2139.8	46.0064
2139.03	26.285
2138.27	52.5614
2137.51	49.2683
2136.75	26.2721
2135.99	39.4017
2135.23	45.9611
2134.47	42.6711
2133.7	36.1004
2132.94	52.501
2132.18	32.8078
2131.42	39.3628
2130.66	9.83909
2129.89	52.4665
2129.13	29.5076
2128.37	68.8397
2127.61	49.1631
2126.84	29.493
2126.08	42.594
2125.32	39.3111
2124.55	26.2031
2123.79	29.4736
2123.03	39.2917
2122.26	29.4639
2121.5	26.1859
2120.74	26.1816
2119.97	55.6267
2119.21	32.7162
2118.44	32.7108
2117.68	55.5992
2116.91	26.16
2116.15	45.7725
2115.38	52.3028
2114.62	39.2207
2113.85	35.9464
2113.09	35.9405
2112.32	45.7349
2111.56	26.1299
2110.79	39.1884
2110.03	45.7123
2109.26	48.9694
2108.5	52.2254
2107.73	39.1626
2106.96	19.5781
2106.2	29.3623
2105.43	58.7149
2104.66	39.1368
2103.9	29.3478
2103.13	61.9462
2102.36	16.299
2101.6	32.5925
2100.83	26.0697
2100.06	39.0982
2099.3	32.5764
2098.53	29.314
2097.76	45.592
2096.99	45.5845
2096.22	45.577
2095.46	32.5496
2094.69	55.3252
2093.92	35.7928
2093.15	35.7869
2092.38	45.5394
2091.61	29.2705
2090.85	35.7692
2090.08	58.5217
2089.31	35.7574
2088.54	39.0016
2087.77	58.4928
2087	29.2416
2086.23	32.4853
2085.46	25.9839
2084.69	25.9796
2083.92	55.1976
2083.15	42.203
2082.38	45.4419
2081.61	58.4156
2080.84	45.4269
2080.07	35.6867
2079.3	51.8993
2078.53	45.4044
2077.76	68.0954
2076.98	32.421
2076.21	29.1741
2075.44	38.8924
2074.67	48.6074
2073.9	32.3996
2073.13	32.3943
2072.36	42.1056
2071.58	48.5754
2070.81	64.7565
2070.04	19.4237
2069.27	55.0248
2068.49	32.3622
2067.72	32.3568
2066.95	45.2921
2066.18	35.5808
2065.4	45.2771
2064.63	45.2697
2063.86	45.2622
2063.08	58.1846
2062.31	32.3194
2061.54	42.0083
2060.76	32.3088
2059.99	45.2248
2059.21	67.826
2058.44	41.9806
2057.67	41.9736
2056.89	32.2821
2056.12	41.9598
2055.34	54.8614
2054.57	41.9459
2053.79	35.4868
2053.02	54.8342
2052.24	48.3751
2051.47	29.0203
2050.69	41.9112
2049.92	45.1277
2049.14	32.2287
2048.36	19.334
2047.59	35.4399
2046.81	48.3191
2046.04	35.4282
2045.26	41.8627
2044.48	48.2951
2043.71	25.7531
2042.93	32.1861
2042.15	38.6169
2041.38	32.1755
2040.6	67.5573
2039.82	45.0307
2039.04	45.0233
2038.27	48.2312
2037.49	48.2233
2036.71	45.0009
2035.93	54.6349
2035.16	44.986
2034.38	51.4041
2033.6	44.9711
2032.82	54.5987
2032.04	48.1674
2031.26	61.0019
2030.48	44.9413
2029.71	57.7721
2028.93	57.7626
2028.15	60.9615
2027.37	70.5753
2026.59	41.6967
2025.81	51.3105
2025.03	28.8574
2024.25	70.5285
2023.47	67.3115
2022.69	51.2765
2021.91	67.2892
2021.13	38.4446
2020.35	54.4542
2019.57	44.8372
2018.79	35.2234
2018.01	44.8223
2017.23	51.217
2016.44	51.2085
2015.66	44.8
2014.88	67.1889
2014.1	70.3767
2013.32	35.1825
2012.54	57.5618
2011.75	41.5655
2010.97	41.5586
2010.19	51.1406
2009.41	76.6982
2008.63	54.3189
2007.84	51.1152
2007.06	54.3008
2006.28	47.9046
2005.5	63.8621
2004.71	41.5035
2003.93	54.2648
2003.15	22.3406
2002.36	41.4828
2001.58	41.476
2000.79	70.1784
2000.01	51.0304
1999.23	63.7774
1998.44	38.2601
1997.66	76.5074
1996.87	47.8092
1996.09	66.9218
1995.3	57.352
1994.52	66.8995
1993.74	28.6665
1992.95	47.7695
1992.17	63.6821
1991.38	47.7536
1990.59	57.2948
1989.81	66.8329
1989.02	82.7317
1988.24	47.7219
1987.45	47.714
1986.67	50.8864
1985.88	57.2377
1985.09	54.0489
1984.31	38.1458
1983.52	31.7829
1982.73	47.6664
1981.95	66.7219
1981.16	69.8875
1980.37	44.4665
1979.59	76.2155
1978.8	57.1521
1978.01	79.3648
1977.22	63.4813
1976.43	72.9913
1975.65	53.9411
1974.86	50.7597
1974.07	44.4073
1973.28	76.1142
1972.49	69.7597
1971.71	44.3852
1970.92	88.7555
1970.13	76.0635
1969.34	53.8694
1968.55	60.1969
1967.76	63.3546
1966.97	57.0097
1966.18	69.6669
1965.39	88.6522
1964.6	60.1468
1963.81	66.467
1963.02	47.4685
1962.23	63.2808
1961.44	72.7608
1960.65	63.2597
1959.86	60.0867
1959.07	56.9148
1958.28	44.2597
1957.49	47.4132
1956.7	63.2071
1955.91	63.1965
1955.12	78.9825
1954.32	50.5404
1953.53	60.0067
1952.74	94.7317
1951.95	56.8295
1951.16	75.7601
1950.36	85.2159
1949.57	53.6455
1948.78	69.412
1947.99	85.1733
1947.2	72.5429
1946.4	81.9913
1945.61	69.3657
1944.82	75.6591
1944.02	78.7984
1943.23	81.9367
1942.44	59.8668
1941.64	59.8568
1940.85	53.5472
1940.06	69.2848
1939.26	81.8684
1938.47	56.6686
1937.67	84.9888
1936.88	62.9441
1936.08	59.787
1935.29	69.2154
1934.49	88.0777
1933.7	66.0472
1932.9	69.1808
1932.11	69.1692
1931.31	88.0189
1930.52	62.8601
1929.72	56.5647
1928.93	59.6972
1928.13	78.5358
1927.34	69.1
1926.54	84.7904
1925.74	81.6364
1924.95	47.09
1924.15	75.3315
1923.35	87.872
1922.56	100.408
1921.76	75.2937
1920.96	90.9647
1920.17	100.358
1919.37	87.7987
1918.57	84.6488
1917.77	72.0962
1916.98	78.3524
1916.18	84.6064
1915.38	103.391
1914.58	81.4456
1913.78	75.168
1912.99	75.1554
1912.19	90.7976
1911.39	81.3912
1910.59	81.3775
1909.79	65.717
1908.99	103.252
1908.19	78.2084
1907.39	96.9622
1906.59	96.946
1905.8	96.9298
1905	78.1561
1904.2	78.143
1903.4	109.382
1902.6	93.7402
1901.8	87.4763
1901	99.9561
1900.19	74.9546
1899.39	87.4323
1898.59	87.4177
1897.79	106.132
1896.99	84.2674
1896.19	106.097
1895.39	81.1193
1894.59	71.7473
1893.79	93.5678
1892.98	99.789
1892.18	74.8292
1891.38	90.4035
1890.58	96.622
1889.78	84.1405
1888.97	77.8949
1888.17	80.9971
1887.37	112.131
1886.57	93.4269
1885.76	90.2975
1884.96	87.1692
1884.16	87.1546
1883.35	74.6914
1882.55	59.1208
1881.75	102.666
1880.94	90.2068
1880.14	93.3017
1879.33	83.9575
1878.53	115.034
1877.73	93.2548
1876.92	105.671
1876.12	87.0086
1875.31	83.8871
1874.51	105.618
1873.7	108.706
1872.9	111.793
1872.09	93.1454
1871.29	105.547
1870.48	102.426
1869.68	102.408
1868.87	102.391
1868.07	96.1696
1867.26	108.56
1866.45	96.1373
1865.65	127.128
1864.84	117.806
1864.03	89.8896
1863.23	108.469
1862.42	86.7609
1861.61	127.021
1860.81	108.415
1860	111.494
1859.19	92.8957
1858.38	117.648
1857.58	111.437
1856.77	114.514
1855.96	108.306
1855.15	92.8177
1854.34	95.8955
1853.54	80.415
1852.73	108.233
1851.92	105.123
1851.11	108.196
1850.3	98.9058
1849.49	123.611
1848.68	83.4237
1847.87	111.213
1847.06	98.8394
1846.26	89.5581
1845.45	101.894
1844.64	111.138
1843.83	129.639
1843.02	111.101
1842.21	114.168
1841.4	126.489
1840.58	95.622
1839.77	92.5218
1838.96	86.3392
1838.15	98.6568
1837.34	98.6402
1836.53	104.788
1835.72	110.933
1834.91	104.752
1834.1	104.735
1833.28	101.637
1832.47	92.3819
1831.66	107.761
1830.85	129.291
1830.04	101.569
1829.22	129.248
1828.41	141.533
1827.6	98.4412
1826.79	89.1974
1825.97	129.161
1825.16	138.363
1824.35	101.449
1823.53	98.3584
1822.72	104.488
1821.91	98.3253
1821.09	113.669
1820.28	92.1489
1819.46	113.631
1818.65	107.471
1817.84	138.154
1817.02	147.339
1816.21	104.348
1815.39	119.673
1814.58	144.197
1813.76	144.172
1812.95	92.0093
1812.13	144.124
1811.32	98.1102
1810.5	125.683
1809.69	125.661
1808.87	128.705
1808.05	107.236
1807.24	104.154
1806.42	134.765
1805.6	116.369
1804.79	119.411
1803.97	146.942
1803.15	119.37
1802.34	107.109
1801.52	134.629
1800.7	143.784
1799.89	110.114
1799.07	152.91
1798.25	110.077
1797.43	143.687
1796.62	113.096
1795.8	103.909
1794.98	116.114
1794.16	100.819
1793.34	116.074
1792.52	137.433
1791.71	109.928
1790.89	134.334
1790.07	134.311
1789.25	134.289
1788.43	137.317
1787.61	131.192
1786.79	137.271
1785.97	118.948
1785.15	118.928
1784.33	112.81
1783.51	112.791
1782.69	109.724
1781.87	140.179
1781.05	137.109
1780.23	97.4832
1779.41	127.925
1778.59	127.903
1777.77	130.927
1776.94	146.126
1776.12	112.62
1775.3	133.904
1774.48	121.71
1773.66	139.943
1772.84	121.669
1772.01	145.978
1771.19	133.79
1770.37	148.969
1769.55	158.063
1768.73	164.114
1767.9	127.623
1767.08	142.792
1766.26	154.918
1765.43	142.744
1764.61	163.975
1763.79	157.876
1762.96	142.671
1762.14	112.297
1761.32	160.83
1760.49	133.497
1759.67	154.709
1758.84	145.583
1758.02	157.689
1757.19	133.406
1756.37	139.447
1755.54	163.671
1754.72	169.704
1753.89	154.525
1753.07	145.411
1752.24	169.618
1751.42	148.39
1750.59	166.532
1749.77	157.422
1748.94	175.556
1748.11	142.237
1747.29	172.471
1746.46	169.417
1745.64	175.438
1744.81	151.214
1743.98	148.164
1743.16	172.325
1742.33	126.955
1741.5	181.333
1740.67	154.107
1739.85	190.336
1739.02	181.241
1738.19	160.069
1737.36	187.219
1736.53	163.034
1735.71	156.969
1734.88	184.106
1734.05	132.775
1733.22	174.992
1732.39	162.896
1731.56	193.029
1730.73	189.981
1729.91	180.904
1729.08	147.713
1728.25	156.73
1727.42	186.839
1726.59	165.716
1725.76	177.738
1724.93	150.6
1724.1	177.677
1723.27	168.614
1722.44	129.45
1721.61	138.458
1720.78	165.519
1719.94	126.375
1719.11	177.497
1718.28	165.435
1717.45	165.407
1716.62	153.351
1715.79	150.319
1714.96	150.293
1714.12	189.337
1713.29	144.233
1712.46	174.251
1711.63	144.184
1710.8	198.219
1709.96	150.14
1709.13	150.115
1708.3	174.104
1707.46	156.066
1706.63	162.041
1705.8	162.014
1704.96	164.986
1704.13	149.962
1703.3	179.924
1702.46	185.889
1701.63	167.872
1700.8	197.815
1699.96	179.801
1699.13	176.775
1698.29	158.77
1697.46	179.71
1696.62	155.722
1695.79	161.684
1694.95	161.656
1694.12	167.615
1693.28	167.586
1692.45	179.526
1691.61	176.504
1690.78	218.349
1689.94	173.454
1689.1	203.325
1688.27	176.384
1687.43	176.354
1686.59	194.255
1685.76	185.258
1684.92	212.114
1684.08	218.052
1683.25	203.083
1682.41	250.824
1681.57	226.898
1680.73	199.994
1679.9	191.007
1679.06	193.958
1678.22	208.842
1677.38	235.653
1676.54	229.648
1675.71	220.663
1674.87	217.644
1674.03	223.569
1673.19	229.492
1672.35	259.252
1671.51	244.311
1670.67	226.396
1669.83	220.401
1668.99	259.075
1668.15	273.918
1667.31	244.103
1666.47	264.896
1665.63	232.116
1664.79	264.805
1663.95	258.811
1663.11	252.818
1662.27	273.591
1661.43	264.625
1660.59	231.879
1659.75	252.645
1658.91	267.461
1658.07	273.358
1657.23	231.721
1656.38	288.116
1655.54	246.491
1654.7	249.418
1653.86	243.438
1653.02	279.015
1652.17	225.548
1651.33	281.887
1650.49	243.272
1649.65	255.095
1648.8	252.086
1647.96	222.391
1647.12	278.682
1646.27	260.849
1645.43	263.769
1644.59	251.871
1643.74	248.865
1642.9	236.974
1642.05	245.819
1641.21	213.204
1640.36	222.049
1639.52	287.135
1638.68	221.973
1637.83	245.609
1636.99	239.649
1636.14	275.106
1635.3	245.483
1634.45	218.827
1633.6	248.356
1632.76	218.752
1631.91	209.848
1631.07	260.049
1630.22	224.549
1629.37	209.74
1628.53	242.194
1627.68	239.199
1626.83	215.538
1625.99	233.214
1625.14	250.883
1624.29	224.281
1623.45	206.539
1622.6	250.754
1621.75	206.468
1620.9	209.382
1620.06	200.501
1619.21	200.466
1618.36	232.855
1617.51	176.822
1616.66	215.096
1615.81	194.437
1614.97	250.369
1614.12	223.821
1613.27	206.115
1612.42	197.248
1611.57	211.932
1610.72	211.896
1609.87	205.974
1609.02	217.707
1608.17	202.962
1607.32	214.692
1606.47	232.298
1605.62	214.618
1604.77	229.279
1603.92	205.728
1603.07	223.323
1602.22	196.843
1601.37	167.435
1600.51	176.217
1599.66	182.06
1598.81	184.965
1597.96	214.288
1597.11	179.031
1596.26	187.804
1595.4	178.97
1594.55	205.34
1593.7	205.305
1592.85	181.811
1591.99	193.507
1591.14	196.405
1590.29	169.993
1589.44	216.851
1588.58	181.655
1587.73	187.483
1586.88	205.024
1586.02	181.561
1585.17	187.386
1584.31	207.846
1583.46	219.518
1582.61	225.333
1581.75	201.887
1580.9	190.151
1580.04	169.644
1579.19	181.312
1578.33	175.434
1577.48	210.484
1576.62	227.985
1575.77	204.567
1574.91	210.376
1574.05	160.676
1573.2	210.304
1572.34	216.108
1571.49	189.792
1570.63	195.598
1569.77	178.052
1568.92	207.205
1568.06	189.662
1567.2	192.547
1566.35	230.433
1565.49	218.728
1564.63	250.765
1563.77	206.991
1562.92	230.275
1562.06	212.749
1561.2	183.574
1560.34	192.282
1559.48	200.988
1558.63	177.654
1557.77	209.654
1556.91	215.441
1556.05	206.672
1555.19	224.098
1554.33	189.141
1553.47	192.018
1552.61	200.712
1551.75	189.044
1550.89	203.551
1550.03	191.886
1549.17	212.201
1548.31	168.569
1547.45	194.693
1546.59	200.47
1545.73	197.531
1544.87	206.21
1544.01	223.598
1543.15	217.753
1542.29	235.132
1541.43	206.068
1540.56	237.953
1539.7	255.321
1538.84	203.061
1537.98	203.026
1537.12	205.891
1536.25	223.252
1535.39	223.213
1534.53	223.175
1533.67	179.668
1532.8	220.201
1531.94	228.853
1531.08	237.503
1530.21	234.566
1529.35	211.363
1528.49	188.167
1527.62	217.079
1526.76	199.678
1525.9	225.684
1525.03	205.395
1524.17	208.252
1523.3	216.892
1522.44	228.42
1521.57	202.363
1520.71	176.314
1519.84	236.972
1518.98	222.484
1518.11	202.223
1517.25	239.738
1516.38	231.033
1515.52	207.893
1514.65	256.935
1513.78	204.935
1512.92	227.987
1512.05	236.604
1511.18	239.448
1510.32	250.945
1509.45	248.018
1508.58	227.791
1507.72	242.166
1506.85	219.065
1505.98	230.555
1505.11	213.227
1504.25	236.237
1503.38	236.197
1502.51	253.435
1501.64	241.874
1500.77	218.801
1499.91	244.669
1499.04	250.383
1498.17	207.177
1497.3	227.28
1496.43	218.612
1495.56	238.706
1494.69	250.166
1493.82	244.373
1492.95	229.959
1492.08	212.675
1491.21	221.259
1490.34	232.713
1489.47	238.417
1488.6	221.144
1487.73	246.95
1486.86	275.617
1485.99	258.346
1485.12	249.692
1484.25	261.126
1483.38	226.653
1482.5	223.745
1481.63	203.63
1480.76	258.078
1479.89	206.427
1479.02	240.79
1478.14	240.748
1477.27	255.034
1476.4	246.395
1475.53	292.186
1474.65	280.679
1473.78	274.903
1472.91	243.362
1472.03	269.083
1471.16	260.45
1470.29	289.021
1469.41	234.61
1468.54	266.036
1467.66	260.27
1466.79	277.383
1465.92	274.475
1465.04	280.145
1464.17	311.536
1463.29	280.048
1462.42	294.285
1461.54	337.084
1460.67	297.04
1459.79	311.267
1458.92	308.357
1458.04	314.013
1457.16	325.376
1456.29	370.978
1455.41	350.942
1454.53	288.122
1453.66	313.742
1452.78	345.056
1451.9	322.186
1451.03	279.37
1450.15	302.123
1449.27	347.667
1448.4	310.566
1447.52	307.664
1446.64	324.7
1445.76	318.948
1444.88	290.42
1444.01	315.991
1443.13	304.551
1442.25	293.115
1441.37	290.219
1440.49	312.927
1439.61	255.987
1438.73	324.194
1437.86	295.704
1436.98	289.967
1436.1	292.759
1435.22	360.913
1434.34	360.85
1433.46	312.493
1432.58	329.481
1431.7	340.783
1430.82	315.17
1429.93	309.437
1429.05	320.737
1428.17	306.492
1427.29	323.463
1426.41	306.386
1425.53	323.351
1424.65	334.638
1423.77	362.935
1422.88	362.872
1422	357.14
1421.12	354.244
1420.24	317.347
1419.36	379.617
1418.47	320.07
1417.59	359.662
1416.71	373.757
1415.82	342.551
1414.94	365.135
1414.06	322.622
1413.17	396.133
1412.29	376.261
1411.41	345.082
1410.52	370.474
1409.64	316.686
1408.75	347.729
1407.87	310.923
1406.98	339.13
1406.1	327.769
1405.22	324.886
1404.33	353.076
1403.44	361.487
1402.56	352.953
1401.67	361.361
1400.79	392.348
1399.9	307.615
1399.02	363.994
1398.13	363.931
1397.24	361.047
1396.36	397.647
1395.47	383.479
1394.58	360.859
1393.7	366.433
1392.81	411.461
1391.92	374.759
1391.04	383.146
1390.15	399.979
1389.26	399.91
1388.37	436.445
1387.48	408.216
1386.6	461.626
1385.71	486.875
1384.82	444.583
1383.93	503.585
1383.04	511.936
1382.15	506.222
1381.26	520.193
1380.37	500.423
1379.49	491.903
1378.6	480.576
1377.71	500.162
1376.82	497.265
1375.93	514.032
1375.04	558.877
1374.15	511.045
1373.26	567.105
1372.36	541.743
1371.47	491.132
1370.58	502.271
1369.69	516.211
1368.8	516.121
1367.91	524.444
1367.02	518.745
1366.13	493.422
1365.23	484.927
1364.34	479.237
1363.45	423.112
1362.56	495.88
1361.66	490.191
1360.77	439.695
1359.88	467.619
1358.99	422.744
1358.09	414.272
1357.2	419.797
1356.31	436.513
1355.41	447.628
1354.52	447.549
1353.62	427.894
1352.73	422.227
1351.84	399.788
1350.94	405.309
1350.05	394.059
1349.15	385.607
1348.26	430.24
1347.36	382.679
1346.47	385.405
1345.57	441.184
1344.68	393.646
1343.78	415.908
1342.89	396.299
1341.99	404.601
1341.09	415.69
1340.2	429.564
1339.3	443.434
1338.4	418.261
1337.51	412.612
1336.61	443.201
1335.71	451.485
1334.82	384.531
1333.92	412.323
1333.02	406.68
1332.12	423.319
1331.23	420.461
1330.33	442.659
1329.43	420.313
1328.53	420.24
1327.63	428.514
1326.73	408.965
1325.84	458.962
1324.94	458.881
1324.04	397.628
1323.14	444.82
1322.24	416.946
1321.34	402.977
1320.44	405.685
1319.54	394.502
1318.64	422.21
1317.74	405.472
1316.84	399.848
1315.94	402.554
1315.04	419.138
1314.14	366.335
1313.24	418.992
1312.34	377.304
1311.43	396.654
1310.53	371.625
1309.63	343.832
1308.73	396.446
1307.83	343.711
1306.93	360.279
1306.02	423.947
1305.12	343.531
1304.22	393.329
1303.32	387.721
1302.41	393.191
1301.51	401.428
1300.61	409.661
1299.7	437.264
1298.8	478.693
1297.9	462.01
1296.99	450.865
1296.09	506.097
1295.18	533.659
1294.28	536.33
1293.38	572.169
1292.47	552.723
1291.57	627.231
1290.66	640.934
1289.76	660.157
1288.85	684.896
1287.95	654.403
1287.04	720.545
1286.13	679.016
1285.23	656.818
1284.32	695.333
1283.42	686.934
1282.51	706.122
1281.6	667.389
1280.7	686.573
1279.79	639.586
1278.88	581.59
1277.98	559.441
1277.07	529.034
1276.16	517.921
1275.25	479.269
1274.35	495.708
1273.44	462.58
1272.53	410.192
1271.62	407.367
1270.71	443.072
1269.8	385.212
1268.9	379.643
1267.99	349.32
1267.08	354.759
1266.17	404.189
1265.26	324.394
1264.35	324.337
1263.44	340.769
1262.53	326.97
1261.62	329.66
1260.71	318.615
1259.8	274.62
1258.89	291.046
1257.98	310.212
1257.07	293.689
1256.16	312.847
1255.24	304.561
1254.33	296.277
1253.42	296.225
1252.51	227.614
1251.6	282.411
1250.69	263.172
1249.77	293.276
1248.86	257.599
1247.95	282.213
1247.04	260.247
1246.12	260.202
1245.21	265.633
1244.3	301.18
1243.39	224.477
1242.47	249.07
1241.56	259.973
1240.64	240.774
1239.73	235.261
1238.82	232.484
1237.9	229.709
1236.99	224.2
1236.07	254.231
1235.16	245.987
1234.24	243.211
1233.33	221.31
1232.41	226.734
1231.5	199.382
1230.58	207.539
1229.67	202.042
1228.75	223.845
1227.84	185.595
1226.92	201.935
1226	201.9
1225.09	240.054
1224.17	220.92
1223.25	220.881
1222.34	215.389
1221.42	198.996
1220.5	209.863
1219.58	196.201
1218.67	177.094
1217.75	220.648
1216.83	201.544
1215.91	209.678
1214.99	220.531
1214.08	204.159
1213.16	217.732
1212.24	231.299
1211.32	193.169
1210.4	217.616
1209.48	225.737
1208.56	217.54
1207.64	214.782
1206.72	244.646
1205.8	203.835
1204.88	214.669
1203.96	206.48
1203.04	222.742
1202.12	200.976
1201.2	219.948
1200.28	192.76
1199.36	222.585
1198.44	192.692
1197.52	189.944
1196.6	168.207
1195.67	203.44
1194.75	178.995
1193.83	181.675
1192.91	173.51
1191.99	203.296
1191.06	176.159
1190.14	203.224
1189.22	173.387
1188.3	159.813
1187.37	159.785
1186.45	186.834
1185.53	203.045
1184.6	194.888
1183.68	189.441
1182.75	200.231
1181.83	238.071
1180.91	202.865
1179.98	200.125
1179.06	208.201
1178.13	221.682
1177.21	194.613
1176.28	240.52
1175.36	218.862
1174.43	243.137
1173.51	210.681
1172.58	216.045
1171.65	229.507
1170.73	240.265
1169.8	232.125
1168.88	242.879
1167.95	229.345
1167.02	242.793
1166.1	269.722
1165.17	296.642
1164.24	272.323
1163.31	283.058
1162.39	253.359
1161.46	261.399
1160.53	280.213
1159.6	331.347
1158.67	307.048
1157.75	296.222
1156.82	341.941
1155.89	298.809
1154.96	317.596
1154.03	306.776
1153.1	344.389
1152.17	298.597
1151.24	355.025
1150.31	338.828
1149.38	371.031
1148.45	311.826
1147.52	303.708
1146.59	319.777
1145.66	319.72
1144.73	346.526
1143.8	311.55
1142.87	303.438
1141.94	343.657
1141.01	367.755
1140.08	338.167
1139.14	346.157
1138.21	332.681
1137.28	337.987
1136.35	345.973
1135.42	327.141
1134.48	332.445
1133.55	356.511
1132.62	369.848
1131.69	385.86
1130.75	348.284
1129.82	377.687
1128.89	358.873
1127.95	337.388
1127.02	348.037
1126.08	372.066
1125.15	350.589
1124.22	406.719
1123.28	401.296
1122.35	409.249
1121.41	401.153
1120.48	425.147
1119.54	422.398
1118.61	382.229
1117.67	366.126
1116.73	366.061
1115.8	390.04
1114.86	357.918
1113.93	389.901
1112.99	381.821
1112.05	371.075
1111.12	354.994
1110.18	365.606
1109.24	373.545
1108.31	349.47
1107.37	376.08
1106.43	389.347
1105.49	386.611
1104.56	338.558
1103.62	327.836
1102.68	333.108
1101.74	330.384
1100.8	332.989
1099.86	303.632
1098.93	327.545
1097.99	306.186
1097.05	319.442
1096.11	319.385
1095.17	242.157
1094.23	292.666
1093.29	295.274
1092.35	244.688
1091.41	303.146
1090.47	300.433
1089.53	268.481
1088.59	252.487
1087.65	292.301
1086.71	281.622
1085.77	252.352
1084.82	284.177
1083.88	308.025
1082.94	292.041
1082	286.68
1081.06	291.937
1080.11	262.696
1079.17	249.384
1078.23	244.035
1077.29	291.729
1076.34	265.161
1075.4	246.555
1074.46	286.271
1073.52	259.718
1072.57	302.068
1071.63	270.223
1070.68	259.579
1069.74	259.533
1068.8	288.613
1067.85	264.735
1066.91	240.866
1065.96	256.702
1065.02	280.469
1064.07	256.61
1063.13	269.789
1062.18	248.585
1061.24	274.981
1060.29	261.714
1059.35	261.667
1058.4	290.69
1057.45	311.775
1056.51	277.377
1055.56	272.045
1054.61	274.638
1053.67	256.107
1052.72	329.975
1051.77	285.048
1050.82	274.441
1049.88	277.031
1048.93	332.378
1047.98	295.394
1047.03	297.978
1046.09	276.833
1045.14	282.056
1044.19	300.454
1043.24	245.064
1042.29	266.097
1041.34	305.561
1040.39	250.199
1039.44	260.688
1038.49	250.11
1037.54	255.33
1036.59	255.284
1035.64	244.713
1034.69	265.716
1033.74	223.583
1032.79	184.094
1031.84	220.873
1030.89	223.463
1029.94	236.565
1028.99	194.474
1028.04	191.812
1027.09	186.524
1026.13	218.01
1025.18	186.457
1024.23	173.295
1023.28	228.394
1022.32	188.981
1021.37	199.445
1020.42	204.657
1019.47	186.257
1018.51	188.846
1017.56	204.547
1016.61	199.266
1015.65	149.423
1014.7	180.848
1013.74	172.954
1012.79	178.163
1011.84	193.849
1010.88	204.29
1009.93	191.161
1008.97	172.799
1008.02	172.768
1007.06	209.379
1006.11	188.407
1005.15	175.292
1004.19	183.108
1003.24	162.152
1002.28	159.508
1001.33	214.382
1000.37	214.344
999.414	198.625
998.457	159.394
997.5	188.103
996.543	195.906
995.586	185.424
994.628	159.279
993.671	172.304
992.713	190.545
991.755	169.633
990.797	161.774
989.839	200.877
988.88	166.933
987.921	169.511
986.963	182.518
986.004	159.022
985.045	169.42
984.085	185.025
983.126	169.359
982.166	145.883
981.206	158.88
980.246	148.435
979.286	148.408
978.326	166.604
977.365	171.779
976.404	192.566
975.443	174.319
974.482	163.883
973.521	163.853
972.56	156.023
971.598	163.795
970.637	158.566
969.675	187.126
968.713	163.706
967.75	142.892
966.788	145.464
965.825	148.035
964.862	163.589
963.899	186.925
962.936	163.53
961.973	158.31
961.01	163.471
960.046	137.498
959.082	186.757
958.118	194.503
957.154	176.318
956.19	181.471
955.225	199.582
954.26	202.138
953.296	194.328
952.33	170.978
951.365	157.997
950.4	207.172
949.434	163.118
948.469	163.089
947.503	183.766
946.537	181.145
945.57	142.302
944.604	168.145
943.637	157.77
942.671	131.882
941.704	142.2
940.737	147.344
939.769	142.149
938.802	144.707
937.834	149.848
936.866	180.819
935.898	139.464
934.93	142.021
933.962	144.577
932.993	136.807
932.025	162.591
931.056	162.561
930.087	170.272
929.117	165.082
928.148	170.21
927.178	165.023
926.209	172.727
925.239	175.273
924.269	170.087
923.298	182.94
922.328	198.364
921.357	195.752
920.387	190.567
919.416	200.831
918.445	193.072
917.473	167.299
916.502	205.869
915.53	177.53
914.558	198.078
913.586	231.478
912.614	210.864
911.642	218.539
910.669	200.505
909.696	182.478
908.724	228.699
907.75	220.95
906.777	233.754
905.804	226.007
904.83	228.534
903.856	246.464
902.882	210.483
901.908	218.145
900.934	256.594
899.96	269.375
898.985	220.591
898.01	228.245
897.035	246.153
896.06	246.108
895.085	235.811
894.109	212.704
893.133	230.601
892.157	225.436
891.181	248.447
890.205	192.064
889.229	238.116
888.252	212.474
887.275	235.47
886.298	253.341
885.321	245.619
884.344	227.668
883.366	263.434
882.389	230.143
881.411	250.555
880.433	247.954
879.455	219.795
878.476	258.085
877.498	260.593
876.519	280.981
875.54	283.484
874.561	285.986
873.582	291.04
872.603	321.618
871.623	298.591
870.643	293.434
869.663	334.199
868.683	336.689
867.703	339.178
866.722	359.515
865.742	344.154
864.761	379.776
863.78	364.417
862.799	374.542
861.817	361.737
860.836	397.329
859.854	381.978
858.872	443.014
857.89	402.205
856.908	369.045
855.925	432.595
854.943	429.972
853.96	452.788
852.977	445.076
851.994	447.538
851.01	465.254
850.027	439.75
849.043	442.212
848.059	503.116
847.075	424.268
846.091	431.811
845.107	429.193
844.122	418.959
843.137	406.19
842.152	368.043
841.167	357.825
840.182	357.76
839.196	314.569
838.211	342.412
837.225	296.703
836.239	299.185
835.253	288.99
834.266	266.127
833.28	253.408
832.293	278.698
831.306	263.449
830.319	255.803
829.332	227.902
828.344	192.415
827.357	202.506
826.369	194.876
825.381	187.25
824.393	184.686
823.404	189.711
822.416	159.329
821.427	151.714
820.438	171.911
819.449	166.825
818.46	149.104
817.471	184.451
816.481	164.207
815.491	156.6
814.501	156.572
813.511	146.444
812.521	121.173
811.53	138.818
810.54	136.27
809.549	105.968
808.558	143.788
807.566	143.762
806.575	113.476
805.583	115.976
804.592	123.517
803.6	115.934
802.608	103.314
801.615	118.411
800.623	105.795
799.63	98.2203
798.637	115.828
797.644	105.737
796.651	120.821
795.658	105.699
794.664	115.744
793.67	110.692
792.676	72.9426
791.682	110.651
790.688	100.574
789.694	103.069
788.699	118.131
787.704	98.0059
786.709	90.4505
785.714	115.555
784.718	100.464
783.723	85.3788
782.727	143.109
781.731	97.8988
780.735	105.41
779.739	132.994
778.742	150.531
777.746	90.3023
776.749	115.365
775.752	125.374
774.755	110.309
773.757	127.835
772.76	100.244
771.762	102.732
770.764	110.229
769.766	120.228
768.768	110.188
767.769	130.199
766.771	130.175
765.772	97.6136
764.773	127.625
763.773	135.108
762.774	112.569
761.775	127.555
760.775	152.538
759.775	105.007
758.775	144.984
757.774	124.963
756.774	142.432
755.773	119.921
754.772	142.38
753.771	139.856
752.77	144.825
751.769	149.791
750.767	129.796
749.765	129.772
748.764	149.709
747.761	142.198
746.759	134.689
745.757	114.714
744.754	137.133
743.751	134.615
742.748	122.129
741.745	137.058
740.741	117.101
739.738	156.937
738.734	132.002
737.73	144.428
736.726	139.423
735.722	164.29
734.717	146.838
733.712	161.741
732.708	131.857
731.703	154.22
730.697	124.348
729.692	151.677
728.686	139.219
727.68	151.621
726.674	168.99
725.668	139.142
724.662	146.57
723.655	193.735
722.649	181.282
721.642	168.835
720.635	153.91
719.627	171.255
718.62	203.483
717.612	196.003
716.605	200.928
715.597	163.689
714.588	200.855
713.58	183.463
712.571	166.078
711.563	166.048
710.554	188.318
709.545	213.058
708.535	210.542
707.526	217.933
706.516	220.369
705.506	210.426
704.496	195.537
703.486	207.874
702.476	215.259
701.465	232.536
700.454	215.18
699.443	215.141
698.432	207.684
697.421	205.174
696.409	207.608
695.398	210.041
694.386	200.12
693.374	202.553
692.361	197.577
691.349	209.887
690.336	190.098
689.323	182.658
688.31	199.9
687.297	202.33
686.284	194.892
685.27	170.191
684.256	192.355
683.243	162.732
682.228	214.471
681.214	172.531
680.2	192.213
679.185	184.787
678.17	169.972
677.155	160.09
676.14	187.147
675.124	172.341
674.109	187.079
673.093	194.428
672.077	209.156
671.061	167.294
670.044	186.941
669.028	191.825
668.011	169.661
666.994	174.546
665.977	191.72
664.96	191.684
663.942	189.192
662.925	186.701
661.907	194.035
660.889	196.455
659.87	193.964
658.852	225.84
657.833	181.621
656.815	198.764
655.796	198.728
654.777	179.067
653.757	228.085
652.738	218.235
651.718	210.84
650.698	237.764
649.678	208.311
648.658	222.975
647.637	200.885
646.616	198.399
645.596	227.749
644.574	254.641
643.553	217.874
642.532	212.938
641.51	254.5
640.488	244.666
639.466	234.837
638.444	239.685
637.422	237.195
636.399	234.707
635.377	259.108
634.354	259.06
633.331	254.125
632.307	283.395
631.284	251.589
630.26	232.005
629.236	280.797
628.212	266.098
627.188	266.048
626.163	244.036
625.139	258.631
624.114	273.22
623.089	290.242
622.064	224.348
621.038	234.059
620.013	263.268
618.987	255.907
617.961	260.734
616.935	297.23
615.909	250.894
614.882	253.283
613.855	260.541
612.829	223.976
611.801	255.577
610.774	248.229
609.747	231.151
608.719	238.407
607.691	231.066
606.663	223.728
605.635	233.412
604.607	250.385
603.578	230.895
602.549	235.713
601.52	221.092
600.491	272.063
599.462	225.867
598.432	254.964
597.402	240.351
596.372	225.742
595.342	223.274
594.312	245.07
593.281	218.339
592.251	225.575
591.22	218.259
590.189	218.218
589.158	244.844
588.126	235.104
587.094	242.33
586.063	220.48
585.031	256.775
583.998	205.866
582.966	237.308
581.933	222.738
580.9	251.744
579.867	258.958
578.834	232.293
577.801	261.281
576.767	253.977
575.734	217.654
574.7	234.539
573.666	227.243
572.631	248.955
571.597	273.074
570.562	246.446
569.527	285.052
568.492	284.999
567.457	280.117
566.421	309.037
565.386	272.771
564.35	311.336
563.314	260.605
562.277	287.095
561.241	284.63
560.204	274.93
559.168	265.235
558.131	241.078
557.093	262.726
556.056	274.727
555.018	257.81
553.981	255.353
552.943	238.446
551.904	219.137
550.866	235.95
549.828	245.535
548.789	252.71
547.75	255.069
546.711	255.022
545.671	233.326
544.632	230.878
543.592	233.239
542.552	259.641
541.512	211.52
540.472	235.513
539.431	218.65
538.391	218.609
537.35	235.382
536.309	220.93
535.268	187.275
534.226	177.638
533.185	225.607
532.143	220.766
531.101	227.922
530.058	239.874
529.016	196.66
527.973	189.43
526.931	201.382
525.888	198.947
524.845	232.461
523.801	230.022
522.758	201.232
521.714	215.566
520.67	227.499
519.626	205.908
518.581	225.021
517.537	208.225
516.492	227.33
515.447	212.933
514.402	186.581
513.357	198.504
512.311	179.338
511.265	196.04
510.22	243.809
509.173	248.543
508.127	207.877
507.081	246.062
506.034	224.52
504.987	217.314
503.94	195.785
502.893	222.007
501.845	212.419
500.798	241.015
499.75	238.584
498.702	217.071
497.654	233.725
496.605	212.221
495.557	205.03
494.508	204.992
493.459	216.869
492.409	193.002
491.36	202.495
490.31	202.457
489.261	204.801
488.211	211.906
487.16	209.486
486.11	211.827
485.059	176.093
484.009	221.264
482.958	202.193
481.907	209.291
480.855	173.584
479.804	192.571
478.752	204.42
477.7	211.511
476.648	213.848
475.595	192.427
474.543	209.018
473.49	199.48
472.437	208.94
471.384	216.022
470.331	201.742
469.277	213.569
468.223	192.176
467.17	211.117
466.115	203.963
465.061	232.379
464.007	234.707
462.952	253.626
461.897	258.318
460.842	284.334
459.787	227.425
458.731	293.702
457.675	281.807
456.62	260.445
455.564	276.967
454.507	265.081
453.451	279.23
452.394	264.982
451.337	283.857
450.28	264.883
449.223	260.105
448.165	278.969
447.108	274.19
446.05	264.686
444.992	245.734
443.934	240.963
442.875	240.918
441.816	281.018
440.758	259.716
439.699	264.389
438.639	269.06
437.58	224.175
436.52	259.522
435.46	264.192
434.4	242.916
433.34	275.883
432.28	240.468
431.219	242.78
430.158	259.231
429.097	247.402
428.036	245
426.975	268.507
425.913	275.522
424.851	240.153
423.789	273.065
422.727	275.367
421.664	240.019
420.602	258.795
419.539	256.395
418.476	263.402
417.413	258.65
416.349	263.303
415.286	253.852
414.222	253.805
413.158	256.107
412.094	281.9
411.029	277.149
409.965	234.828
408.9	260.611
407.835	309.857
406.77	312.146
405.704	283.93
404.639	304.991
403.573	290.86
402.507	316.603
401.441	314.199
400.374	304.763
399.308	314.081
398.241	290.588
397.174	288.19
396.107	292.821
395.039	276.372
393.972	281.003
392.904	316.069
391.836	283.239
390.768	285.526
389.699	273.773
388.631	285.419
387.562	276.009
386.493	271.28
385.424	238.495
384.354	280.529
383.285	238.405
382.215	243.034
381.145	259.343
380.075	291.999
379.004	289.608
377.934	280.213
376.863	261.483
375.792	273.106
374.721	301.06
373.649	261.336
372.578	289.282
371.506	272.9
370.434	249.529
369.361	265.803
368.289	305.383
367.216	240.065
366.144	293.617
365.071	281.912
363.997	293.507
362.924	279.478
361.85	274.768
360.776	251.435
359.702	246.733
358.628	239.705
357.554	239.66
356.479	251.246
355.404	225.614
354.329	253.477
353.254	241.804
352.178	258.031
351.103	269.604
350.027	239.344
348.951	276.472
347.875	283.389
346.798	269.401
345.721	273.994
344.645	255.37
343.568	248.359
342.49	252.953
341.413	243.625
340.335	271.417
339.257	241.214
338.179	245.806
337.101	292.13
336.022	264.258
334.944	261.891
333.865	289.648
332.786	315.077
331.706	287.222
330.627	280.22
329.547	263.96
328.467	243.075
327.387	333.297
326.307	280.009
325.226	298.466
324.146	296.097
323.065	272.913
321.983	300.61
320.902	300.553
319.821	288.939
318.739	305.062
317.657	323.49
316.575	328.049
315.492	300.27
314.41	284.048
313.327	288.612
312.244	302.409
311.161	281.579
310.078	290.757
308.994	288.395
307.91	281.42
306.826	302.123
305.742	297.455
304.658	295.093
303.573	244.328
302.488	308.809
301.403	288.014
300.318	292.567
299.232	269.479
298.147	297.062
297.061	315.425
295.975	285.44
294.889	299.195
293.802	326.752
292.716	317.487
291.629	301.326
290.542	319.667
289.454	310.409
288.367	314.949
287.279	330.978
286.191	321.724
285.103	307.877
284.015	351.465
282.926	351.399
281.838	353.629
280.749	305.349
279.66	353.495
278.57	353.428
277.481	371.718
276.391	369.353
275.301	346.347
274.211	350.868
273.121	339.337
272.03	355.32
270.939	350.669
269.848	389.558
268.757	323.043
267.666	371.085
266.574	387.047
265.482	352.627
264.39	377.743
263.298	384.538
262.206	391.331
261.113	407.273
260.02	398.046
258.927	434.565
257.834	407.042
256.74	411.537
255.647	459.463
254.553	443.378
253.459	445.579
252.365	454.633
251.27	456.831
250.175	415.637
249.08	479.491
247.985	474.834
246.89	445.073
245.794	465.526
244.699	456.312
243.603	460.788
242.507	533.683
241.41	424.129
240.314	510.682
239.217	485.512
238.12	524.162
237.023	512.67
235.925	539.91
234.828	539.808
233.73	532.874
232.632	555.541
231.534	548.606
230.435	575.813
229.336	559.775
228.238	571.045
227.139	539.091
226.039	568.554
224.94	532.065
223.84	572.885
222.74	556.865
221.64	554.487
220.54	593.007
219.439	581.536
218.338	572.341
217.237	524.546
216.136	494.932
215.035	587.904
213.933	578.715
212.832	576.336
211.73	578.495
210.627	614.676
209.525	612.291
208.422	612.175
207.32	623.393
206.216	616.475
205.113	654.881
204.01	627.569
202.906	595.737
201.802	591.095
200.698	670.233
199.594	622.564
198.489	631.5
197.385	574.804
196.28	613.159
195.174	617.567
194.069	626.496
192.964	596.98
191.858	560.693
190.752	635.18
189.646	612.459
188.539	598.785
187.433	539.934
186.326	537.572
185.219	553.278
184.111	562.204
183.004	568.869
181.896	580.046
180.788	573.166
179.68	561.776
178.572	609.039
177.464	595.391
176.355	545.671
175.246	547.822
174.137	615.337
173.027	630.995
171.918	610.596
170.808	653.281
169.698	614.868
168.588	626.01
167.477	652.908
166.367	661.787
165.256	643.657
164.145	675.036
163.034	616.415
161.922	677.028
160.81	697.138
159.699	746.47
158.586	726.096
157.474	732.7
156.362	757.279
155.249	736.914
154.136	801.915
153.023	810.745
151.909	792.627
150.796	873.295
149.682	873.129
148.568	884.183
147.454	863.821
146.339	915.251
145.225	939.747
144.11	966.477
142.995	981.986
141.879	1044.56
140.764	1053.33
139.648	1071.05
138.532	1147.02
137.416	1110.96
136.3	1137.62
135.183	1220.25
134.066	1264.78
132.949	1333.92
131.832	1335.91
130.715	1297.62
129.597	1418.16
128.479	1312.78
127.361	1489.17
126.243	1457.59
125.124	1528.83
124.005	1468.2
122.887	1579.64
121.767	1635.18
120.648	1684
119.528	1701.55
118.409	1757.03
117.289	1926.34
116.168	1919.28
115.048	1927.84
113.927	1972.08
112.807	1953.86
111.685	1962.41
110.564	1959.8
109.443	2010.7
108.321	1985.8
107.199	1974.28
106.077	1953.85
104.955	1942.34
103.832	1881.84
102.709	1848.08
101.586	1863.31
100.463	1811.76
