3201.25	63.169
3200.65	37.9014
3200.06	71.5807
3199.47	42.0999
3198.87	67.3497
3198.28	75.757
3197.68	54.7051
3197.09	37.8671
3196.5	37.8613
3195.9	71.5051
3195.31	71.4943
3194.71	75.6884
3194.12	58.8598
3193.52	21.0182
3192.93	84.0601
3192.33	50.4284
3191.74	54.6225
3191.14	75.6198
3190.55	63.0069
3189.95	71.3971
3189.36	67.1871
3188.76	79.7726
3188.17	62.9689
3187.57	58.762
3186.97	67.1465
3186.38	41.9602
3185.78	79.7123
3185.19	20.9738
3184.59	58.7176
3183.99	33.5479
3183.4	71.2784
3182.8	50.3066
3182.21	58.6821
3181.61	117.346
3181.01	71.2353
3180.42	58.6555
3179.82	54.4576
3179.22	83.7682
3178.63	46.0656
3178.03	87.93
3177.43	96.2897
3176.83	71.1599
3176.24	54.4082
3175.64	79.5076
3175.04	50.2077
3174.44	92.0336
3173.85	83.6542
3173.25	50.1849
3172.65	62.7217
3172.05	37.6273
3171.45	45.982
3170.86	87.7705
3170.26	45.968
3169.66	83.5656
3169.06	37.5988
3168.46	66.8323
3167.86	87.704
3167.27	75.1635
3166.67	91.8526
3166.07	75.1408
3165.47	87.6509
3164.87	62.5983
3164.27	62.5888
3163.67	41.7196
3163.07	120.968
3162.47	54.219
3161.87	79.2312
3161.27	87.558
3160.67	66.7008
3160.07	79.1952
3159.47	70.8481
3158.87	100.006
3158.27	70.8266
3157.67	58.319
3157.07	79.1352
3156.47	49.9726
3155.87	70.7837
3155.27	62.4468
3154.67	79.0872
3154.07	95.7227
3153.47	124.837
3152.87	62.4089
3152.27	58.2395
3151.67	79.0273
3151.07	74.8566
3150.46	54.0549
3149.86	74.8339
3149.26	66.509
3148.66	45.718
3148.06	54.0221
3147.46	58.1689
3146.86	108.012
3146.25	95.5342
3145.65	45.6833
3145.05	70.5908
3144.45	53.973
3143.85	83.0228
3143.24	95.4617
3142.64	78.8477
3142.04	62.2388
3141.44	70.5266
3140.83	37.3319
3140.23	70.5051
3139.63	58.0543
3139.02	70.4838
3138.42	62.1821
3137.82	87.0417
3137.21	62.1632
3136.61	41.4359
3136.01	70.4303
3135.4	120.128
3134.8	86.9757
3134.2	82.8214
3133.59	49.6853
3132.99	62.0972
3132.39	33.1135
3131.78	74.494
3131.18	45.5172
3130.57	49.6476
3129.97	62.0501
3129.36	57.9046
3128.76	90.9791
3128.15	62.0218
3127.55	74.4149
3126.95	20.6677
3126.34	57.8606
3125.74	66.1164
3125.13	86.7646
3124.53	53.7033
3123.92	74.3471
3123.31	53.6869
3122.71	78.4536
3122.1	86.6987
3121.5	28.8952
3120.89	78.4178
3120.29	66.026
3119.68	49.512
3119.07	70.1313
3118.47	86.6197
3117.86	94.8547
3117.26	86.5933
3116.65	45.3515
3116.04	57.7113
3115.44	65.9458
3114.83	107.146
3114.22	82.4072
3113.62	65.9157
3113.01	90.6203
3112.4	90.6065
3111.8	37.0607
3111.19	57.6412
3110.58	78.2154
3109.97	37.0438
3109.37	94.653
3108.76	82.2944
3108.15	78.1678
3107.54	57.5886
3106.93	82.2569
3106.33	53.4588
3105.72	57.5623
3105.11	82.2194
3104.5	78.0965
3103.89	78.0846
3103.29	65.7455
3102.68	102.712
3102.07	90.3725
3101.46	98.5732
3100.85	69.812
3100.24	90.3312
3099.63	98.5282
3099.02	73.8849
3098.42	69.7695
3097.81	94.3797
3097.2	86.1596
3096.59	98.4532
3095.98	28.7111
3095.37	94.3222
3094.76	82.0068
3094.15	53.2963
3093.54	69.6846
3092.93	114.757
3092.32	53.272
3091.71	94.2361
3091.1	94.2217
3090.49	53.2476
3089.88	77.8116
3089.27	65.5156
3088.66	69.5997
3088.05	90.0565
3087.43	69.5785
3086.82	98.2135
3086.21	81.8321
3085.6	98.1836
3084.99	65.4457
3084.38	81.7947
3083.77	118.584
3083.16	98.1237
3082.54	122.636
3081.93	81.7448
3081.32	85.819
3080.71	49.032
3080.1	57.1952
3079.49	73.5255
3078.87	106.187
3078.26	81.6701
3077.65	65.3261
3077.04	81.6452
3076.42	73.4695
3075.81	85.7013
3075.2	102.01
3074.59	114.234
3073.97	122.374
3073.36	57.0994
3072.75	73.4023
3072.13	53.0047
3071.52	77.4565
3070.91	73.3687
3070.29	73.3575
3069.68	89.6454
3069.07	48.8901
3068.45	89.6181
3067.84	105.896
3067.23	44.7954
3066.61	69.2186
3066	109.919
3065.38	89.5497
3064.77	101.746
3064.15	109.868
3063.54	105.783
3062.93	77.2912
3062.31	44.7407
3061.7	73.2009
3061.08	77.2558
3060.47	126.03
3059.85	113.816
3059.24	101.606
3058.62	85.3358
3058.01	101.575
3057.39	85.3098
3056.77	77.1732
3056.16	77.1614
3055.54	77.1497
3054.93	77.1379
3054.31	69.0076
3053.7	101.466
3053.08	121.741
3052.46	81.1482
3051.85	77.079
3051.23	101.404
3050.61	77.0554
3050	105.428
3049.38	129.738
3048.76	105.396
3048.15	81.0614
3047.53	81.049
3046.91	76.9848
3046.3	97.2291
3045.68	85.0624
3045.06	105.299
3044.44	76.9377
3043.83	64.7797
3043.21	72.8661
3042.59	93.0924
3041.97	36.4219
3041.36	84.9714
3040.74	84.9584
3040.12	109.216
3039.5	141.554
3038.88	93.007
3038.27	117.252
3037.65	97.0211
3037.03	121.258
3036.41	92.9501
3035.79	96.9766
3035.17	101.002
3034.55	84.8286
3033.93	141.359
3033.32	104.994
3032.7	76.7144
3032.08	84.7766
3031.46	96.8728
3030.84	68.6077
3030.22	117.019
3029.6	76.6557
3028.98	157.322
3028.36	133.098
3027.74	96.7838
3027.12	116.929
3026.5	76.5971
3025.88	149.14
3025.26	116.876
3024.64	112.828
3024.02	84.6081
3023.4	64.4534
3022.78	92.6376
3022.16	104.705
3021.54	136.901
3020.91	128.828
3020.29	108.682
3019.67	84.5174
3019.05	124.745
3018.43	108.632
3017.81	120.684
3017.19	116.643
3016.56	112.604
3015.94	112.586
3015.32	104.528
3014.7	120.591
3014.08	92.4391
3013.45	112.517
3012.83	112.5
3012.21	84.3621
3011.59	120.499
3010.97	96.3843
3010.34	124.477
3009.72	112.414
3009.1	128.453
3008.47	120.407
3007.85	84.2716
3007.23	116.357
3006.61	140.41
3005.98	92.255
3005.36	132.346
3004.74	140.345
3004.11	116.268
3003.49	132.285
3002.86	156.313
3002.24	92.1702
3001.62	132.224
3000.99	124.191
3000.37	104.144
2999.74	124.153
2999.12	124.134
2998.5	104.097
2997.87	76.0588
2997.25	160.099
2996.62	136.064
2996	120.038
2995.37	132.021
2994.75	108.001
2994.12	151.978
2993.5	91.9724
2992.87	99.9546
2992.25	119.927
2991.62	155.881
2990.99	123.887
2990.37	139.851
2989.74	139.829
2989.12	139.808
2988.49	147.774
2987.87	95.8386
2987.24	95.8239
2986.61	119.761
2985.99	147.683
2985.36	147.66
2984.73	175.569
2984.11	147.615
2983.48	103.714
2982.85	115.663
2982.23	131.596
2981.6	131.576
2980.97	131.556
2980.35	119.578
2979.72	91.6621
2979.09	119.541
2978.46	127.491
2977.84	143.405
2977.21	143.383
2976.58	131.414
2975.95	119.449
2975.32	111.469
2974.7	191.06
2974.07	139.293
2973.44	163.147
2972.81	115.379
2972.18	163.096
2971.55	155.117
2970.93	107.372
2970.3	139.164
2969.67	155.045
2969.04	139.122
2968.41	147.049
2967.78	166.895
2967.15	135.084
2966.52	146.981
2965.89	142.987
2965.26	131.051
2964.63	186.619
2964	127.041
2963.37	130.99
2962.74	154.783
2962.11	134.918
2961.48	158.703
2960.85	178.513
2960.22	150.721
2959.59	162.595
2958.96	134.814
2958.33	210.12
2957.7	178.376
2957.07	130.789
2956.44	146.62
2955.81	138.673
2955.18	138.651
2954.55	130.708
2953.92	158.41
2953.28	150.466
2952.65	154.402
2952.02	130.628
2951.39	158.312
2950.76	146.416
2950.13	150.35
2949.49	150.327
2948.86	142.393
2948.23	197.738
2947.6	217.478
2946.96	79.0709
2946.33	154.165
2945.7	173.902
2945.07	134.358
2944.43	173.849
2943.8	154.07
2943.17	165.895
2942.54	157.971
2941.9	185.588
2941.27	169.767
2940.64	142.108
2940	153.927
2939.37	193.366
2938.74	193.336
2938.1	134.131
2937.47	177.499
2936.83	177.471
2936.2	181.387
2935.57	157.704
2934.93	157.679
2934.3	161.596
2933.66	193.098
2933.03	181.247
2932.39	185.159
2931.76	149.68
2931.12	173.287
2930.49	149.634
2929.85	165.359
2929.22	141.714
2928.58	204.667
2927.95	165.283
2927.31	173.126
2926.68	180.968
2926.04	180.94
2925.41	133.718
2924.77	169.087
2924.14	141.54
2923.5	188.69
2922.86	161.148
2922.23	196.492
2921.59	161.098
2920.95	165.002
2920.32	196.401
2919.68	196.37
2919.04	204.194
2918.41	200.236
2917.77	184.503
2917.13	196.249
2916.5	164.824
2915.86	200.112
2915.22	223.62
2914.59	160.825
2913.95	180.41
2913.31	184.303
2912.67	184.275
2912.04	203.847
2911.4	180.298
2910.76	207.703
2910.12	191.998
2909.48	195.886
2908.85	180.187
2908.21	199.742
2907.57	203.627
2906.93	207.511
2906.29	223.137
2905.65	207.446
2905.01	215.241
2904.37	168.254
2903.74	211.262
2903.1	250.346
2902.46	168.175
2901.82	199.433
2901.18	195.492
2900.54	234.555
2899.9	191.523
2899.26	195.402
2898.62	218.816
2897.98	160.18
2897.34	238.28
2896.7	214.809
2896.06	206.966
2895.42	191.316
2894.78	202.998
2894.14	199.063
2893.5	195.13
2892.86	206.806
2892.22	234.083
2891.58	191.139
2890.93	214.51
2890.29	222.276
2889.65	179.353
2889.01	237.801
2888.37	253.355
2887.73	190.961
2887.09	183.138
2886.44	218.174
2885.8	253.198
2885.16	198.632
2884.52	241.437
2883.88	190.784
2883.24	210.219
2882.59	182.94
2881.95	179.02
2881.31	182.883
2880.67	202.308
2880.02	206.166
2879.38	175.02
2878.74	178.881
2878.09	186.63
2877.45	190.488
2876.81	233.215
2876.16	182.657
2875.52	178.743
2874.88	221.451
2874.23	248.609
2873.59	229.151
2872.95	186.399
2872.3	205.783
2871.66	209.634
2871.01	240.653
2870.37	228.973
2869.73	213.416
2869.08	182.346
2868.44	224.987
2867.79	197.803
2867.15	166.749
2866.5	228.76
2865.86	217.095
2865.21	232.565
2864.57	228.654
2863.92	247.993
2863.28	232.457
2862.63	232.421
2861.99	240.131
2861.34	201.369
2860.7	212.953
2860.05	232.277
2859.4	224.499
2858.76	216.724
2858.11	193.474
2857.47	189.575
2856.82	212.755
2856.17	204.987
2855.53	204.955
2854.88	189.457
2854.23	208.757
2853.59	231.917
2852.94	212.557
2852.29	255.029
2851.65	169.993
2851	200.87
2850.35	220.15
2849.7	235.562
2849.06	185.332
2848.41	235.489
2847.76	216.153
2847.11	250.853
2846.47	177.499
2845.82	208.336
2845.17	162.014
2844.52	246.841
2843.87	208.239
2843.22	208.207
2842.58	208.175
2841.93	204.288
2841.28	196.548
2840.63	246.611
2839.98	196.487
2839.33	200.309
2838.68	238.793
2838.03	173.29
2837.38	223.317
2836.73	188.635
2836.09	196.304
2835.44	203.971
2834.79	227.026
2834.14	223.144
2833.49	169.255
2832.84	238.459
2832.19	242.267
2831.54	215.315
2830.89	169.15
2830.24	226.779
2829.58	215.215
2828.93	180.599
2828.28	238.199
2827.63	211.273
2826.98	222.762
2826.33	222.728
2825.68	226.533
2825.03	226.497
2824.38	203.432
2823.73	226.427
2823.07	168.834
2822.42	226.356
2821.77	222.485
2821.12	264.64
2820.47	207.077
2819.81	210.879
2819.16	249.182
2818.51	180.15
2817.86	222.278
2817.21	210.748
2816.55	206.884
2815.9	237.496
2815.25	225.969
2814.6	222.105
2813.94	225.899
2813.29	210.551
2812.64	233.484
2811.98	221.966
2811.33	198.973
2810.68	191.291
2810.02	172.135
2809.37	221.828
2808.71	214.145
2808.06	225.582
2807.41	248.484
2806.75	206.401
2806.1	191.082
2805.44	233.084
2804.79	225.407
2804.14	202.452
2803.48	194.782
2802.83	236.757
2802.17	263.447
2801.52	190.874
2800.86	187.027
2800.21	240.426
2799.55	213.679
2798.9	175.495
2798.24	228.87
2797.59	205.951
2796.93	316.505
2796.27	240.201
2795.62	209.667
2794.96	221.069
2794.31	236.278
2793.65	224.81
2792.99	194.297
2792.34	251.404
2791.68	255.173
2791.02	255.134
2790.37	217.02
2789.71	243.634
2789.05	251.208
2788.4	232.141
2787.74	201.665
2787.08	232.069
2786.43	190.19
2785.77	216.783
2785.11	239.565
2784.45	235.726
2783.8	193.873
2783.14	167.237
2782.48	205.213
2781.82	246.978
2781.16	220.346
2780.51	239.304
2779.85	208.883
2779.19	227.837
2778.53	239.191
2777.87	258.135
2777.21	227.73
2776.56	235.285
2775.9	212.482
2775.24	254.18
2774.58	242.761
2773.92	204.797
2773.26	238.893
2772.6	231.273
2771.94	284.307
2771.28	269.102
2770.62	257.691
2769.96	238.706
2769.3	227.304
2768.64	219.693
2767.98	223.446
2767.32	242.344
2766.66	249.878
2766	185.486
2765.34	249.8
2764.68	223.271
2764.02	230.803
2763.36	257.249
2762.7	219.384
2762.04	268.514
2761.38	257.128
2760.71	253.307
2760.05	249.488
2759.39	207.874
2758.73	234.294
2758.07	222.922
2757.41	234.22
2756.74	298.396
2756.08	237.924
2755.42	256.766
2754.76	207.646
2754.1	215.163
2753.43	256.646
2752.77	230.191
2752.11	230.155
2751.45	256.526
2750.78	252.714
2750.12	263.988
2749.46	282.8
2748.79	233.745
2748.13	218.63
2747.47	260.054
2746.8	244.94
2746.14	267.508
2745.48	256.164
2744.81	267.424
2744.15	233.489
2743.48	259.809
2742.82	244.71
2742.16	210.794
2741.49	248.397
2740.83	225.78
2740.16	188.12
2739.5	312.231
2738.83	289.615
2738.17	267.005
2737.5	214.323
2736.84	248.124
2736.17	244.327
2735.51	214.222
2734.84	266.796
2734.18	274.269
2733.51	244.174
2732.85	262.915
2732.18	289.161
2731.52	240.304
2730.85	292.825
2730.18	247.736
2729.52	247.697
2728.85	266.42
2728.19	251.371
2727.52	228.825
2726.85	251.292
2726.19	255.003
2725.52	288.708
2724.85	284.914
2724.19	277.373
2723.52	277.329
2722.85	254.803
2722.18	217.298
2721.52	265.961
2720.85	262.174
2720.18	217.196
2719.51	273.324
2718.85	228.358
2718.18	265.753
2717.51	310.62
2716.84	231.993
2716.17	284.334
2715.5	288.03
2714.84	299.205
2714.17	250.545
2713.5	276.677
2712.83	295.326
2712.16	239.214
2711.49	246.65
2710.82	310.133
2710.15	224.157
2709.49	276.417
2708.82	212.882
2708.15	298.735
2707.48	313.623
2706.81	291.176
2706.14	265.003
2705.47	261.229
2704.8	257.457
2704.13	242.494
2703.46	249.916
2702.79	290.901
2702.12	335.603
2701.45	253.527
2700.77	309.403
2700.1	245.993
2699.43	264.587
2698.76	316.709
2698.09	260.778
2697.42	346.408
2696.75	297.939
2696.08	279.274
2695.41	294.122
2694.73	301.521
2694.06	260.532
2693.39	320.032
2692.72	290.216
2692.05	264.13
2691.37	278.966
2690.7	349.583
2690.03	286.315
2689.36	301.142
2688.69	312.246
2688.01	319.63
2687.34	319.58
2686.67	319.53
2685.99	293.475
2685.32	334.286
2684.65	304.524
2683.97	345.32
2683.3	282.153
2682.63	282.109
2681.95	304.332
2681.28	319.128
2680.61	300.526
2679.93	304.189
2679.26	307.85
2678.58	259.592
2677.91	318.877
2677.24	318.826
2676.56	270.589
2675.89	303.902
2675.21	274.209
2674.54	318.626
2673.86	340.802
2673.19	311.118
2672.51	303.662
2671.84	296.209
2671.16	322.077
2670.49	303.519
2669.81	329.377
2669.14	307.124
2668.46	310.775
2667.78	325.523
2667.11	292.184
2666.43	314.326
2665.76	288.395
2665.08	299.44
2664.4	258.735
2663.73	303.041
2663.05	362.114
2662.37	347.279
2661.7	336.143
2661.02	295.464
2660.34	343.422
2659.67	365.521
2658.99	335.931
2658.31	358.024
2657.63	357.967
2656.96	335.772
2656.28	335.719
2655.6	343.044
2654.92	342.99
2654.24	346.623
2653.57	313.386
2652.89	383.377
2652.21	350.145
2651.53	302.183
2650.85	375.826
2650.17	379.451
2649.5	342.557
2648.82	349.869
2648.14	375.589
2647.46	349.758
2646.78	364.427
2646.1	353.328
2645.42	301.754
2644.74	312.744
2644.06	367.876
2643.38	338.393
2642.7	349.372
2642.02	378.733
2641.34	371.32
2640.66	382.289
2639.98	393.255
2639.3	363.795
2638.62	293.93
2637.94	367.354
2637.26	407.698
2636.58	385.6
2635.9	400.226
2635.22	378.136
2634.54	348.711
2633.86	396.366
2633.17	377.956
2632.49	374.228
2631.81	407.184
2631.13	359.439
2630.45	359.382
2629.77	377.658
2629.08	351.936
2628.4	362.877
2627.72	377.479
2627.04	395.741
2626.36	395.678
2625.67	322.354
2624.99	421.191
2624.31	369.857
2623.62	395.428
2622.94	402.687
2622.26	384.322
2621.58	395.241
2620.89	387.86
2620.21	387.799
2619.53	387.737
2618.84	424.249
2618.16	358.361
2617.47	369.273
2616.79	361.903
2616.11	354.536
2615.42	405.642
2614.74	358.078
2614.05	412.82
2613.37	412.755
2612.69	394.429
2612	398.018
2611.32	376.049
2610.63	383.29
2609.95	390.529
2609.26	386.818
2608.58	419.595
2607.89	353.863
2607.21	437.7
2606.52	375.633
2605.83	393.805
2605.15	408.326
2604.46	422.842
2603.78	400.907
2603.09	389.912
2602.4	349.772
2601.72	440.789
2601.03	466.215
2600.35	389.665
2599.66	360.474
2598.97	371.339
2598.29	385.84
2597.6	382.139
2596.91	422.106
2596.22	367.465
2595.54	403.784
2594.85	396.446
2594.16	385.473
2593.47	418.136
2592.79	414.434
2592.1	388.925
2591.41	396.132
2590.72	417.871
2590.03	450.502
2589.35	435.901
2588.66	384.985
2587.97	395.818
2587.28	421.17
2586.59	417.474
2585.9	406.518
2585.21	457.261
2584.53	449.931
2583.84	388.186
2583.15	446.161
2582.46	427.957
2581.77	406.132
2581.08	387.939
2580.39	387.878
2579.7	416.812
2579.01	413.122
2578.32	384.07
2577.63	412.991
2576.94	380.326
2576.25	401.995
2575.56	405.552
2574.87	398.247
2574.18	427.143
2573.49	430.694
2572.8	401.676
2572.11	376.286
2571.41	416.019
2570.72	394.251
2570.03	397.805
2569.34	397.742
2568.65	433.831
2567.96	347.01
2567.27	419.237
2566.57	458.919
2565.88	382.974
2565.19	397.363
2564.5	397.3
2563.81	400.848
2563.11	393.563
2562.42	404.331
2561.73	379
2561.04	422.247
2560.34	411.355
2559.65	440.152
2558.96	396.795
2558.26	353.452
2557.57	432.73
2556.88	400.212
2556.18	356.889
2555.49	418.106
2554.8	363.983
2554.1	450.402
2553.41	403.496
2552.71	421.443
2552.02	388.962
2551.33	399.703
2550.63	410.441
2549.94	395.976
2549.24	385.116
2548.55	370.66
2547.85	420.974
2547.16	370.542
2546.46	366.886
2545.77	438.755
2545.07	355.982
2544.38	381.092
2543.68	395.41
2542.99	427.694
2542.29	391.691
2541.59	427.557
2540.9	416.712
2540.2	434.605
2539.51	359.121
2538.81	405.742
2538.11	409.267
2537.42	463.044
2536.72	376.837
2536.02	434.19
2535.33	452.06
2534.63	376.657
2533.93	383.77
2533.24	326.332
2532.54	423.088
2531.84	440.945
2531.14	405.032
2530.45	451.556
2529.75	429.985
2529.05	390.508
2528.35	419.102
2527.65	472.758
2526.96	383.159
2526.26	383.098
2525.56	368.718
2524.86	372.239
2524.16	447.331
2523.46	368.542
2522.77	386.371
2522.07	375.578
2521.37	439.893
2520.67	436.247
2519.97	364.673
2519.27	414.66
2518.57	403.872
2517.87	403.807
2517.17	418.035
2516.47	392.962
2515.77	403.614
2515.07	371.409
2514.37	410.627
2513.67	414.132
2512.97	417.635
2512.27	442.551
2511.57	392.523
2510.87	435.275
2510.17	417.369
2509.47	363.802
2508.77	420.802
2508.06	402.907
2507.36	438.492
2506.66	392.085
2505.96	413.406
2505.26	381.27
2504.56	416.836
2503.86	427.456
2503.15	423.827
2502.45	398.832
2501.75	423.691
2501.05	402.265
2500.34	348.811
2499.64	398.577
2498.94	387.839
2498.24	398.45
2497.53	423.286
2496.83	497.904
2496.13	412.483
2495.42	426.638
2494.72	376.804
2494.02	458.49
2493.31	380.237
2492.61	401.494
2491.91	383.668
2491.2	394.262
2490.5	401.302
2489.8	443.847
2489.09	418.925
2488.39	386.911
2487.68	440.086
2486.98	379.691
2486.27	386.726
2485.57	415.043
2484.86	414.977
2484.16	436.188
2483.45	436.118
2482.75	393.507
2482.04	386.355
2481.34	329.59
2480.63	400.405
2479.93	418.055
2479.22	474.665
2478.51	403.755
2477.81	485.137
2477.1	378.842
2476.4	375.241
2475.69	442.431
2474.98	421.127
2474.28	421.059
2473.57	367.926
2472.86	417.387
2472.16	403.174
2471.45	396.038
2470.74	420.723
2470.04	392.376
2469.33	367.573
2468.62	459.392
2467.91	420.453
2467.21	434.517
2466.5	459.172
2465.79	430.846
2465.08	451.963
2464.37	420.117
2463.67	405.93
2462.96	391.748
2462.25	455.202
2461.54	384.567
2460.83	416.253
2460.12	380.917
2459.41	384.382
2458.7	401.95
2458	419.512
2457.29	377.148
2456.58	398.233
2455.87	401.692
2455.16	401.628
2454.45	383.951
2453.74	419.109
2453.03	447.213
2452.32	429.537
2451.61	404.827
2450.9	376.604
2450.19	450.445
2449.48	404.632
2448.77	446.783
2448.05	390.433
2447.34	414.988
2446.63	393.824
2445.92	404.308
2445.21	464.001
2444.5	397.149
2443.79	404.113
2443.08	432.156
2442.36	393.445
2441.65	351.234
2440.94	389.807
2440.23	403.789
2439.52	421.278
2438.8	417.7
2438.09	393.067
2437.38	403.53
2436.67	442.058
2435.95	420.94
2435.24	427.887
2434.53	420.805
2433.82	487.354
2433.1	431.187
2432.39	431.118
2431.68	357.455
2430.96	371.413
2430.25	413.393
2429.54	420.333
2428.82	374.736
2428.11	406.191
2427.39	437.636
2426.68	364.054
2425.97	402.496
2425.25	416.429
2424.54	409.364
2423.82	444.281
2423.11	412.73
2422.39	367.201
2421.68	328.679
2420.96	395.051
2420.25	381.006
2419.53	412.399
2418.82	405.344
2418.1	412.266
2417.38	373.775
2416.67	415.627
2415.95	401.591
2415.24	384.069
2414.52	401.462
2413.8	464.225
2413.09	383.884
2412.37	362.887
2411.66	397.716
2410.94	418.581
2410.22	411.538
2409.5	404.498
2408.79	421.865
2408.07	463.629
2407.35	383.391
2406.64	404.238
2405.92	393.72
2405.2	411.075
2404.48	330.897
2403.76	386.565
2403.05	456.143
2402.33	431.699
2401.61	417.706
2400.89	396.757
2400.17	431.491
2399.46	441.859
2398.74	386.13
2398.02	427.805
2397.3	386.006
2396.58	420.713
2395.86	427.598
2395.14	403.199
2394.42	385.757
2393.7	427.392
2392.98	420.375
2392.26	375.15
2391.54	347.305
2390.82	409.754
2390.1	388.857
2389.38	440.865
2388.66	395.673
2387.94	426.842
2387.22	430.243
2386.5	364.26
2385.78	395.418
2385.06	412.695
2384.34	398.758
2383.62	391.76
2382.9	398.63
2382.18	429.758
2381.45	401.967
2380.73	440.013
2380.01	422.622
2379.29	443.335
2378.57	367.078
2377.84	436.267
2377.12	398.116
2376.4	408.436
2375.68	432.596
2374.96	380.623
2374.23	456.674
2373.51	415.091
2372.79	439.234
2372.06	404.583
2371.34	394.146
2370.62	407.91
2369.89	466.601
2369.17	414.689
2368.45	438.809
2367.72	400.737
2367	421.397
2366.28	404.061
2365.55	452.338
2364.83	403.931
2364.1	421.125
2363.38	452.119
2362.66	383.031
2361.93	410.571
2361.21	410.504
2360.48	427.684
2359.76	434.512
2359.03	427.545
2358.31	455.056
2357.58	430.854
2356.86	417
2356.13	437.607
2355.4	437.536
2354.68	451.244
2353.95	406.398
2353.23	371.898
2352.5	426.925
2351.77	416.529
2351.05	433.67
2350.32	340.686
2349.59	419.767
2348.87	436.9
2348.14	405.873
2347.41	416.125
2346.69	433.25
2345.96	412.553
2345.23	402.174
2344.5	422.73
2343.78	453.588
2343.05	401.979
2342.32	419.09
2341.59	388.11
2340.87	487.635
2340.14	343.35
2339.41	418.819
2338.68	446.21
2337.95	459.865
2337.22	411.753
2336.5	415.117
2335.77	456.212
2335.04	390.976
2334.31	418.345
2333.58	435.42
2332.85	425.066
2332.12	431.852
2331.39	452.343
2330.66	459.122
2329.93	431.642
2329.2	380.195
2328.47	499.995
2327.74	417.736
2327.01	441.633
2326.28	421.024
2325.55	417.533
2324.82	455.106
2324.09	407.134
2323.36	431.014
2322.63	448.045
2321.9	437.714
2321.17	406.871
2320.43	423.898
2319.7	396.485
2318.97	403.256
2318.24	406.607
2317.51	420.207
2316.78	461.128
2316.04	413.24
2315.31	440.491
2314.58	396.036
2313.85	430.107
2313.11	443.69
2312.38	487.98
2311.65	412.839
2310.92	436.651
2310.18	382.008
2309.45	439.92
2308.72	426.21
2307.98	436.368
2307.25	419.255
2306.52	374.883
2305.78	463.416
2305.05	470.155
2304.32	429.202
2303.58	415.509
2302.85	486.952
2302.11	391.542
2301.38	432.328
2300.64	415.24
2299.91	421.979
2299.17	408.3
2298.44	404.832
2297.7	435.379
2296.97	404.701
2296.23	438.638
2295.5	448.766
2294.76	404.504
2294.03	407.837
2293.29	485.927
2292.56	411.102
2291.82	478.975
2291.08	472.104
2290.35	431.277
2289.61	431.207
2288.88	454.901
2288.14	461.615
2287.4	444.572
2286.67	481.824
2285.93	434.25
2285.19	413.827
2284.45	451.066
2283.72	447.602
2282.98	393.283
2282.24	464.406
2281.5	443.995
2280.77	416.813
2280.03	498.061
2279.29	464.104
2278.55	399.675
2277.81	402.996
2277.08	450.334
2276.34	426.563
2275.6	402.8
2274.86	443.346
2274.12	439.89
2273.38	456.735
2272.64	449.895
2271.9	476.879
2271.17	436.223
2270.43	405.723
2269.69	466.505
2268.95	436.01
2268.21	476.492
2267.47	429.111
2266.73	439.176
2265.99	418.838
2265.25	452.542
2264.51	465.975
2263.77	513.164
2263.03	388.186
2262.28	506.247
2261.54	496.041
2260.8	391.37
2260.06	431.787
2259.32	462.072
2258.58	377.69
2257.84	458.55
2257.1	448.362
2256.35	471.883
2255.61	438.105
2254.87	441.404
2254.13	427.856
2253.39	431.155
2252.64	454.66
2251.9	488.259
2251.16	430.944
2250.42	461.17
2249.67	467.826
2248.93	484.576
2248.19	457.58
2247.44	467.598
2246.7	501.156
2245.96	487.623
2245.21	430.383
2244.47	477.379
2243.73	470.578
2242.98	436.894
2242.24	460.345
2241.49	456.91
2240.75	446.758
2240.01	403.024
2239.26	426.465
2238.52	473.399
2237.77	453.181
2237.03	490.027
2236.28	436.254
2235.54	466.38
2234.79	452.886
2234.05	506.478
2233.3	422.555
2232.56	492.901
2231.81	516.288
2231.06	452.516
2230.32	512.768
2229.57	425.562
2228.83	435.543
2228.08	445.522
2227.33	488.989
2226.59	472.166
2225.84	478.785
2225.09	505.488
2224.35	488.67
2223.6	491.937
2222.85	475.127
2222.1	515.195
2221.36	491.696
2220.61	428.074
2219.86	471.473
2219.11	461.367
2218.37	488.033
2217.62	481.269
2216.87	507.923
2216.12	501.158
2215.37	457.65
2214.62	511.014
2213.88	444.143
2213.13	484.136
2212.38	487.396
2211.63	500.667
2210.88	510.597
2210.13	433.77
2209.38	497.086
2208.63	497.005
2207.88	483.583
2207.13	513.515
2206.38	456.754
2205.63	496.68
2204.88	479.934
2204.13	423.206
2203.38	469.782
2202.63	456.381
2201.88	502.936
2201.13	489.533
2200.38	462.816
2199.63	506.018
2198.88	495.95
2198.13	479.229
2197.38	445.876
2196.62	409.208
2195.87	512.257
2195.12	522.151
2194.37	535.367
2193.62	508.681
2192.86	518.571
2192.11	415.454
2191.36	478.524
2190.61	468.478
2189.86	471.724
2189.1	551.361
2188.35	454.965
2187.6	441.609
2186.84	468.095
2186.09	527.766
2185.34	438.073
2184.58	477.82
2183.83	484.377
2183.08	497.566
2182.32	487.535
2181.57	513.984
2180.81	520.53
2180.06	454.146
2179.31	420.928
2178.55	497.078
2177.8	460.55
2177.04	503.541
2176.29	513.395
2175.53	460.324
2174.78	526.471
2174.02	443.62
2173.27	529.609
2172.51	503.046
2171.76	473.183
2171	516.115
2170.25	525.954
2169.49	568.863
2168.73	512.554
2167.98	529.002
2167.22	495.858
2166.46	466.03
2165.71	508.914
2164.95	475.79
2164.19	528.568
2163.44	511.967
2162.68	515.185
2161.92	501.893
2161.17	554.633
2160.41	521.534
2159.65	574.253
2158.89	481.765
2158.14	521.277
2157.38	511.296
2156.62	498.019
2155.86	577.08
2155.1	530.826
2154.35	501.071
2153.59	514.172
2152.83	467.952
2152.07	540.363
2151.31	490.859
2150.55	480.897
2149.79	523.631
2149.03	510.374
2148.27	530.043
2147.51	477.29
2146.76	533.16
2146	542.944
2145.24	457.314
2144.48	490.134
2143.72	526.232
2142.96	522.857
2142.19	519.484
2141.43	552.272
2140.67	496.306
2139.91	522.514
2139.15	486.285
2138.39	561.765
2137.63	564.957
2136.87	463.057
2136.11	574.622
2135.35	525.282
2134.58	551.456
2133.82	551.365
2133.06	505.335
2132.3	508.533
2131.54	564.215
2130.77	544.443
2130.01	534.516
2129.25	504.92
2128.49	524.506
2127.72	593.25
2126.96	517.779
2126.2	520.971
2125.43	524.161
2124.67	543.728
2123.91	546.913
2123.14	566.47
2122.38	497.626
2121.62	484.451
2120.85	520.372
2120.09	556.281
2119.33	523.472
2118.56	562.64
2117.8	457.887
2117.03	591.886
2116.27	519.858
2115.5	545.925
2114.74	516.419
2113.97	571.888
2113.21	526.051
2112.44	525.964
2111.68	529.144
2110.91	493.133
2110.15	548.561
2109.38	541.942
2108.61	525.532
2107.85	505.863
2107.08	531.885
2106.32	535.06
2105.55	538.234
2104.78	596.852
2104.02	515.23
2103.25	593.395
2102.48	557.438
2101.72	567.125
2100.95	511.632
2100.18	537.613
2099.41	501.69
2098.65	609.094
2097.88	569.914
2097.11	595.869
2096.34	566.471
2095.57	527.317
2094.81	546.757
2094.04	536.905
2093.27	569.351
2092.5	536.728
2091.73	478.097
2090.96	562.566
2090.2	477.939
2089.43	585.136
2088.66	585.039
2087.89	620.689
2087.12	519.863
2086.35	487.291
2085.58	529.436
2084.81	587.804
2084.04	548.743
2083.27	529.174
2082.5	545.316
2081.73	554.963
2080.96	535.402
2080.19	577.49
2079.42	554.688
2078.65	580.542
2077.87	538.291
2077.1	541.445
2076.33	560.805
2075.56	531.543
2074.79	583.304
2074.02	557.287
2073.25	605.788
2072.47	537.67
2071.7	540.819
2070.93	615.202
2070.16	556.828
2069.39	576.157
2068.61	537.226
2067.84	556.552
2067.07	514.402
2066.3	540.194
2065.52	562.744
2064.75	620.857
2063.98	562.558
2063.2	581.861
2062.43	591.461
2061.66	539.659
2060.88	539.57
2060.11	604.089
2059.33	584.61
2058.56	561.908
2057.79	565.044
2057.01	606.918
2056.24	584.224
2055.46	619.627
2054.69	571.124
2053.91	558.125
2053.14	596.74
2052.36	577.291
2051.59	593.318
2050.81	606.116
2050.04	586.675
2049.26	576.909
2048.48	563.924
2047.71	576.718
2046.93	595.951
2046.16	550.761
2045.38	573.212
2044.6	576.337
2043.83	560.145
2043.05	595.458
2042.27	608.232
2041.5	559.867
2040.72	633.768
2039.94	617.58
2039.16	582.101
2038.39	594.867
2037.61	591.554
2036.83	562.526
2036.05	581.716
2035.28	613.753
2034.5	578.311
2033.72	632.824
2032.94	597.39
2032.16	603.713
2031.38	667.827
2030.6	606.723
2029.83	625.881
2029.05	548.758
2028.27	548.667
2027.49	590.281
2026.71	596.598
2025.93	590.086
2025.15	589.988
2024.37	593.096
2023.59	580.176
2022.81	621.743
2022.03	592.801
2021.25	573.48
2020.47	566.978
2019.69	640.547
2018.91	576.397
2018.13	589.108
2017.35	576.206
2016.56	604.916
2015.78	611.216
2015	620.713
2014.22	601.416
2013.44	601.316
2012.66	614.008
2011.88	613.907
2011.09	620.198
2010.31	620.096
2009.53	543.293
2008.75	616.695
2007.96	587.839
2007.18	574.965
2006.4	638.744
2005.62	581.16
2004.83	593.834
2004.05	616.081
2003.27	622.362
2002.48	590.348
2001.7	647.679
2000.92	602.912
2000.13	634.706
1999.35	628.223
1998.56	577.104
1997.78	698.148
1997	608.786
1996.21	678.795
1995.43	595.839
1994.64	624.412
1993.86	570.159
1993.07	566.879
1992.29	617.732
1991.5	588.977
1990.72	582.512
1989.93	661.981
1989.14	601.411
1988.36	550.407
1987.57	655.289
1986.79	604.292
1986	664.611
1985.21	651.782
1984.43	664.39
1983.64	645.209
1982.85	597.434
1982.07	654.526
1981.28	651.241
1980.49	660.661
1979.71	644.673
1978.92	708.07
1978.13	660.332
1977.34	666.57
1976.56	666.459
1975.77	663.175
1974.98	624.994
1974.19	621.718
1973.4	646.987
1972.62	631.024
1971.83	659.453
1971.04	618.135
1970.25	618.032
1969.46	652.787
1968.67	601.984
1967.88	722.261
1967.09	639.791
1966.3	661.852
1965.51	693.404
1964.72	652.135
1963.93	667.852
1963.14	645.588
1962.35	686.614
1961.56	597.919
1960.77	657.918
1959.98	714.734
1959.19	635.565
1958.4	679.72
1957.61	666.963
1956.82	657.37
1956.03	682.54
1955.24	638.195
1954.45	713.901
1953.65	685.357
1952.86	653.665
1952.07	634.612
1951.28	691.328
1950.49	665.963
1949.69	722.655
1948.9	656.276
1948.11	757.115
1947.32	697.06
1946.52	678.023
1945.73	633.767
1944.94	677.797
1944.15	661.923
1943.35	668.116
1942.56	712.118
1941.77	601.734
1940.97	677.232
1940.18	626.728
1939.38	614.028
1938.59	639.113
1937.8	635.858
1937	717.582
1936.21	714.315
1935.41	692.172
1934.62	670.037
1933.82	597.586
1933.03	716.983
1932.23	697.998
1931.44	685.307
1930.64	669.478
1929.85	707.077
1929.05	653.544
1928.25	719.407
1927.46	628.198
1926.66	719.166
1925.87	681.367
1925.07	734.623
1924.27	678.001
1923.48	706.133
1922.68	658.947
1921.88	661.974
1921.09	677.548
1920.29	696.252
1919.49	674.185
1918.69	683.478
1917.9	749.193
1917.1	661.311
1916.3	689.403
1915.5	676.755
1914.71	704.836
1913.91	710.982
1913.11	720.258
1912.31	695.089
1911.51	726.278
1910.71	694.857
1909.91	697.87
1909.12	697.753
1908.32	747.691
1907.52	731.927
1906.72	694.276
1905.92	694.16
1905.12	706.549
1904.32	750.192
1903.52	762.568
1902.72	678.072
1901.92	687.331
1901.12	702.835
1900.32	674.608
1899.52	637.023
1898.72	761.802
1897.92	711.729
1897.11	702.247
1896.31	767.661
1895.51	726.972
1894.71	670.699
1893.91	773.514
1893.11	711.015
1892.31	695.306
1891.5	754.421
1890.7	707.54
1889.9	760.401
1889.1	732.231
1888.3	750.8
1887.49	769.363
1886.69	750.548
1885.89	750.423
1885.08	772.09
1884.28	715.931
1883.48	725.148
1882.67	718.803
1881.87	784.017
1881.07	721.673
1880.26	702.891
1879.46	733.869
1878.65	817.692
1877.85	770.926
1877.05	755.257
1876.24	689.872
1875.44	736.361
1874.63	773.516
1873.83	751.644
1873.02	767.046
1872.22	779.337
1871.41	797.832
1870.61	779.075
1869.8	723.084
1869	757.094
1868.19	744.558
1867.38	800.265
1866.58	747.409
1865.77	753.485
1864.96	731.657
1864.16	700.537
1863.35	774.8
1862.54	814.953
1861.74	755.951
1860.93	755.825
1860.12	734.018
1859.32	733.895
1858.51	712.099
1857.7	764.604
1856.89	736.62
1856.09	798.387
1855.28	788.971
1854.47	785.745
1853.66	794.892
1852.85	726.724
1852.04	708.051
1851.24	751.212
1850.43	723.267
1849.62	713.875
1848.81	831.169
1848	753.796
1847.19	796.913
1846.38	821.485
1845.57	759.592
1844.76	808.86
1843.95	737.729
1843.14	771.554
1842.33	783.767
1841.52	802.146
1840.71	743.403
1839.9	835.802
1839.09	841.829
1838.28	752.277
1837.47	835.38
1836.66	850.65
1835.84	785.795
1835.03	822.635
1834.22	788.611
1833.41	757.678
1832.6	785.266
1831.79	775.897
1830.97	757.296
1830.16	824.883
1829.35	852.441
1828.54	803.067
1827.72	922.91
1826.91	756.659
1826.1	768.833
1825.29	811.751
1824.47	790.094
1823.66	796.109
1822.85	866.66
1822.03	789.695
1821.22	814.14
1820.4	795.573
1819.59	810.795
1818.78	758.457
1817.96	767.54
1817.15	788.898
1816.33	779.558
1815.52	800.907
1814.7	788.499
1813.89	828.245
1813.07	803.569
1812.26	821.833
1811.44	852.355
1810.63	812.359
1809.81	839.807
1809	802.892
1808.18	851.78
1807.36	808.748
1806.55	833.115
1805.73	857.474
1804.91	774.659
1804.1	829.633
1803.28	789.702
1802.46	838.534
1801.65	838.393
1800.83	810.718
1800.01	835.051
1799.19	856.318
1798.38	819.481
1797.56	865.201
1796.74	901.736
1795.92	883.247
1795.11	846.429
1794.29	809.624
1793.47	812.542
1792.65	833.784
1791.83	922.199
1791.01	860.981
1790.19	839.467
1789.37	912.576
1788.56	854.442
1787.74	854.298
1786.92	863.305
1786.1	832.659
1785.28	826.419
1784.46	862.868
1783.64	899.304
1782.82	822.953
1782	862.431
1781.18	874.473
1780.36	916.975
1779.53	916.82
1778.71	895.348
1777.89	922.6
1777.07	925.489
1776.25	809.666
1775.43	903.873
1774.61	976.748
1773.79	870.102
1772.96	955.125
1772.14	900.221
1771.32	903.109
1770.5	912.077
1769.67	911.923
1768.85	954.318
1768.03	856.918
1767.21	957.034
1766.38	890.043
1765.56	932.413
1764.74	968.695
1763.91	889.591
1763.09	892.477
1762.27	919.642
1761.44	961.971
1760.62	934.501
1759.79	961.645
1758.97	964.516
1758.15	897.636
1757.32	882.324
1756.5	906.427
1755.67	909.305
1754.85	948.547
1754.02	899.907
1753.2	963.374
1752.37	890.515
1751.55	899.45
1750.72	896.27
1749.89	999.05
1749.07	923.209
1748.24	947.263
1747.42	956.181
1746.59	934.841
1745.76	964.931
1744.94	892.184
1744.11	946.462
1743.28	958.395
1742.46	985.438
1741.63	1000.38
1740.8	951.864
1739.97	987.958
1739.15	957.583
1738.32	975.542
1737.49	1029.73
1736.66	1011.44
1735.83	1029.38
1735.01	989.972
1734.18	1023
1733.35	968.516
1732.52	950.252
1731.69	968.188
1730.86	974.055
1730.03	1049.27
1729.2	997.842
1728.37	955.475
1727.55	988.462
1726.72	1060.61
1725.89	1018.25
1725.06	1018.08
1724.23	1008.87
1723.4	1032.79
1722.56	996.488
1721.73	999.329
1720.9	1029.25
1720.07	989.963
1719.24	986.787
1718.41	1055.8
1717.58	1040.59
1716.75	995.305
1715.92	1004.16
1715.08	1067.11
1714.25	1012.83
1713.42	1042.71
1712.59	1060.56
1711.76	1036.35
1710.92	1066.2
1710.09	1020.98
1709.26	1014.8
1708.43	990.615
1707.59	1020.46
1706.76	969.272
1705.93	996.111
1705.09	1103.93
1704.26	1052.76
1703.43	1052.58
1702.59	1031.41
1701.76	1067.21
1700.92	1108.99
1700.09	1084.83
1699.26	1054.68
1698.42	1060.49
1697.59	1033.36
1696.75	1057.14
1695.92	988.093
1695.08	1119.65
1694.25	1143.4
1693.41	1065.4
1692.58	1131.05
1691.74	1133.84
1690.9	1109.72
1690.07	1112.52
1689.23	1139.25
1688.4	1136.06
1687.56	1100
1686.72	1087.86
1685.89	1054.8
1685.05	1054.62
1684.21	1144.06
1683.38	1176.72
1682.54	1101.86
1681.7	1125.56
1680.86	1110.44
1680.03	1059.52
1679.19	1101.11
1678.35	1166.56
1677.51	1100.74
1676.67	1195.99
1675.84	1189.82
1675	1132.97
1674.16	1222.21
1673.32	1204.12
1672.48	1191.99
1671.64	1233.5
1670.8	1185.63
1669.96	1176.49
1669.12	1170.34
1668.28	1271.37
1667.44	1229.48
1666.6	1181.64
1665.76	1249.89
1664.92	1187.19
1664.08	1255.41
1663.24	1267.1
1662.4	1252.01
1661.56	1311.27
1660.72	1221.86
1659.88	1379.18
1659.04	1257.1
1658.2	1351.97
1657.36	1271.53
1656.51	1268.34
1655.67	1363.16
1654.83	1339.17
1653.99	1353.79
1653.15	1371.37
1652.3	1350.36
1651.46	1424.31
1650.62	1367.7
1649.78	1411.96
1648.93	1518.49
1648.09	1444.09
1647.25	1455.71
1646.4	1532.53
1645.56	1561.91
1644.72	1534.97
1643.87	1516.93
1643.03	1670.71
1642.18	1714.85
1641.34	1652.37
1640.5	1714.27
1639.65	1752.46
1638.81	1858.71
1637.96	1811.04
1637.12	1831.44
1636.27	1949.46
1635.43	1981.66
1634.58	2019.77
1633.73	2078.55
1632.89	2217.14
1632.04	2275.87
1631.2	2305.04
1630.35	2331.24
1629.5	2469.68
1628.66	2560.82
1627.81	2584.01
1626.97	2704.63
1626.12	2842.92
1625.27	2987.06
1624.42	2930.48
1623.58	2953.58
1622.73	3124.19
1621.88	3241.64
1621.03	3400.34
1620.19	3452.83
1619.34	3528.89
1618.49	3604.92
1617.64	3645.57
1616.79	3659.68
1615.94	3712.08
1615.1	3879.34
1614.25	3866.9
1613.4	3869.18
1612.55	3992.17
1611.7	4106.29
1610.85	4073.21
1610	4154.91
1609.15	4263.05
1608.3	4253.5
1607.45	4370.41
1606.6	4454.94
1605.75	4430.66
1604.9	4447.54
1604.05	4546.7
1603.2	4587.06
1602.35	4624.47
1601.5	4538.49
1600.65	4602.33
1599.79	4636.78
1598.94	4591.94
1598.09	4400.35
1597.24	4379.05
1596.39	4416.45
1595.54	4471.44
1594.68	4461.87
1593.83	4355.52
1592.98	4164.16
1592.13	4181.04
1591.27	4250.68
1590.42	4038.92
1589.57	3935.66
1588.71	3955.49
1587.86	3723.38
1587.01	3746.18
1586.15	3640.11
1585.3	3589.71
1584.45	3369.53
1583.59	3497.74
1582.74	3368.38
1581.88	3259.54
1581.03	3326.26
1580.17	3068.3
1579.32	3044.37
1578.46	3043.85
1577.61	2999.48
1576.75	2958.04
1575.9	2887.39
1575.04	2761.25
1574.19	2833.82
1573.33	2777.83
1572.47	2824.08
1571.62	2671.76
1570.76	2691.74
1569.91	2548.25
1569.05	2574.08
1568.19	2550.29
1567.33	2491.5
1566.48	2365.65
1565.62	2429.4
1564.76	2428.99
1563.91	2396.5
1563.05	2285.32
1562.19	2229.55
1561.33	2313.67
1560.47	2257.92
1559.62	2199.27
1558.76	2195.98
1557.9	2253.84
1557.04	2145.73
1556.18	2081.32
1555.32	2115.89
1554.46	2112.62
1553.6	2147.17
1552.74	2120.62
1551.89	2044.63
1551.03	2067.55
1550.17	2102.08
1549.31	1982.53
1548.45	2054.85
1547.59	1996.38
1546.72	2016.38
1545.86	1986.98
1545	2033.11
1544.14	1968.87
1543.28	1898.85
1542.42	2026.26
1541.56	1938.83
1540.7	1990.73
1539.84	1981.69
1538.97	1882.71
1538.11	1960.7
1537.25	1873.37
1536.39	1986.12
1535.53	1846.63
1534.66	2040.51
1533.8	1892.36
1532.94	1834.09
1532.07	1830.88
1531.21	1946.42
1530.35	1891.06
1529.48	1902.32
1528.62	1809.35
1527.76	1898.77
1526.89	1950.53
1526.03	1866.28
1525.17	1831.25
1524.3	1865.64
1523.44	1830.62
1522.57	1893.91
1521.71	1821.31
1520.84	1809.44
1519.98	1866.92
1519.11	1765.47
1518.25	1834.5
1517.38	1828.41
1516.52	1764.56
1515.65	1847.99
1514.78	1876.54
1513.92	1824.26
1513.05	1849.92
1512.18	1840.95
1511.32	1768.5
1510.45	1860.5
1509.58	1808.27
1508.72	1839.68
1507.85	1833.59
1506.98	1772.74
1506.12	1752.26
1505.25	1766.37
1504.38	1800.64
1503.51	1745.6
1502.64	1843.22
1501.78	1805.46
1500.91	1802.27
1500.04	1747.27
1499.17	1807.41
1498.3	1861.77
1497.43	1749.24
1496.56	1809.35
1495.69	1797.53
1494.83	1756.96
1493.96	1779.66
1493.09	1836.84
1492.22	1761.8
1491.35	1727.01
1490.48	1758.32
1489.61	1890.15
1488.74	1797.92
1487.86	1751.66
1486.99	1797.3
1486.12	1725.22
1485.25	1802.42
1484.38	1753.32
1483.51	1767.37
1482.64	1784.27
1481.77	1921.63
1480.89	1835.27
1480.02	1832.09
1479.15	1840.37
1478.28	1854.38
1477.41	1825.41
1476.53	1813.63
1475.66	1796.13
1474.79	1864.56
1473.91	1792.64
1473.04	1732.21
1472.17	1832.1
1471.29	1803.16
1470.42	1794.27
1469.55	1879.79
1468.67	1845.14
1467.8	1861.98
1466.93	1855.94
1466.05	1809.87
1465.18	1778.11
1464.3	1854.97
1463.43	1774.64
1462.55	1820.05
1461.68	1768.31
1460.8	1825.13
1459.93	1899.06
1459.05	1781.67
1458.17	1781.36
1457.3	1875.24
1456.42	1860.65
1455.55	1880.3
1454.67	1828.62
1453.79	1862.53
1452.92	1830.84
1452.04	1776.35
1451.16	1796
1450.29	1841.29
1449.41	1806.77
1448.53	1817.86
1447.65	1883.07
1446.78	1911.22
1445.9	1902.35
1445.02	1924.8
1444.14	1887.45
1443.26	1861.51
1442.39	1906.72
1441.51	1906.39
1440.63	1911.75
1439.75	1928.48
1438.87	1933.84
1437.99	1896.54
1437.11	1984.34
1436.23	1915.78
1435.35	1847.24
1434.47	1909.43
1433.59	1872.17
1432.71	1951.37
1431.83	1860.16
1430.95	1888.23
1430.07	1961.71
1429.19	1958.54
1428.31	1952.52
1427.43	2068.52
1426.55	1977.37
1425.67	2016.74
1424.78	2044.75
1423.9	2069.92
1423.02	2061.05
1422.14	2049.36
1421.26	2037.66
1420.37	2003.31
1419.49	2045.46
1418.61	2056.43
1417.73	2115.55
1416.84	2146.33
1415.96	2069.51
1415.08	2052.17
1414.19	2094.27
1413.31	2175.96
1412.43	2093.54
1411.54	2197.83
1410.66	2208.76
1409.77	2293.21
1408.89	2213.65
1408.01	2165.21
1407.12	2176.14
1406.24	2353.78
1405.35	2265.79
1404.47	2327.54
1403.58	2287.6
1402.7	2281.55
1401.81	2303.74
1400.92	2252.53
1400.04	2390.43
1399.15	2392.83
1398.27	2378.31
1397.38	2344.05
1396.49	2335.18
1395.61	2408.09
1394.72	2373.84
1393.83	2418.52
1392.95	2477.29
1392.06	2513.49
1391.17	2476.43
1390.28	2704.16
1389.4	2627.65
1388.51	2711.66
1387.62	2604.21
1386.73	2716.35
1385.84	2713.06
1384.96	2642.24
1384.07	2776.83
1383.18	2832.6
1382.29	2846.17
1381.4	2862.54
1380.51	2912.65
1379.62	2861.55
1378.73	2872.29
1377.84	3043.2
1376.95	2978.05
1376.06	3070.23
1375.17	3128.67
1374.28	3043.89
1373.39	3093.89
1372.5	3183.18
1371.61	3207.88
1370.72	3235.38
1369.83	3313.37
1368.94	3279.14
1368.05	3376.72
1367.15	3336.88
1366.26	3493.3
1365.37	3520.72
1364.48	3651.83
1363.59	3603.56
1362.69	3594.52
1361.8	3515.46
1360.91	3775.31
1360.02	3699.05
1359.12	3933.58
1358.23	3907.7
1357.34	3800.67
1356.44	3895.14
1355.55	3989.59
1354.66	3882.6
1353.76	3954.63
1352.87	4076.98
1351.97	4174.12
1351.08	4165.01
1350.19	4262.1
1349.29	4415.04
1348.4	4280.17
1347.5	4360.43
1346.61	4449.04
1345.71	4484.56
1344.82	4514.49
1343.92	4636.52
1343.02	4786.42
1342.13	4718.61
1341.23	4762.43
1340.34	5026.59
1339.44	4995.04
1338.54	5094.55
1337.65	5099.24
1336.75	5142.94
1335.85	5334.35
1334.95	5297.19
1334.06	5354.77
1333.16	5325.98
1332.26	5405.82
1331.36	5655.48
1330.47	5534.78
1329.57	5709.18
1328.67	5838.99
1327.77	5762.83
1326.87	5914.85
1325.97	5908.25
1325.08	5954.49
1324.18	5931.21
1323.28	6085.86
1322.38	6182.09
1321.48	6181
1320.58	6224.38
1319.68	6242.74
1318.78	6461.09
1317.88	6476.62
1316.98	6469.94
1316.08	6318.88
1315.18	6309.45
1314.28	6391.61
1313.38	6371.06
1312.47	6475.37
1311.57	6302.26
1310.67	6450.92
1309.77	6541.29
1308.87	6409.85
1307.97	6339.42
1307.06	6460.26
1306.16	6395.39
1305.26	6438.6
1304.36	6207.56
1303.45	6347.72
1302.55	6161.08
1301.65	6090.79
1300.75	6136.78
1299.84	5991.79
1298.94	5935.4
1298.04	5920.53
1297.13	5922.25
1296.23	5948.87
1295.32	5665.78
1294.42	5880.43
1293.51	5766.07
1292.61	5646.22
1291.71	5584.44
1290.8	5475.72
1289.9	5353.22
1288.99	5277.71
1288.08	5210.51
1287.18	5107.45
1286.27	5136.92
1285.37	5031.14
1284.46	4875.74
1283.56	4866.61
1282.65	4876.79
1281.74	4795.95
1280.84	4621.39
1279.93	4711.56
1279.02	4589.45
1278.12	4652.03
1277.21	4480.38
1276.3	4474.08
1275.39	4481.56
1274.49	4301.76
1273.58	4372.6
1272.67	4234.18
1271.76	4076.54
1270.85	4084.08
1269.94	3956.79
1269.04	3964.34
1268.13	3996.66
1267.22	3954.7
1266.31	3802.78
1265.4	3788.36
1264.49	3815.18
1263.58	3646.87
1262.67	3629.74
1261.76	3689.55
1260.85	3579.03
1259.94	3548.19
1259.03	3470.68
1258.12	3590.87
1257.21	3485.93
1256.3	3485.32
1255.39	3325.56
1254.47	3278.34
1253.56	3321.65
1252.65	3460.93
1251.74	3208.06
1250.83	3232.17
1249.91	3121.96
1249	3066.6
1248.09	3027.7
1247.18	3125.79
1246.27	3045.81
1245.35	2924.78
1244.44	2918.79
1243.53	2910.06
1242.61	2871.23
1241.7	2796.84
1240.79	2831.91
1239.87	2790.38
1238.96	2915.71
1238.04	2775.72
1237.13	2739.69
1236.21	2793.88
1235.3	2804.32
1234.38	2754.64
1233.47	2707.7
1232.55	2674.45
1231.64	2654.86
1230.72	2668.04
1229.81	2659.38
1228.89	2506.04
1227.98	2568.37
1227.06	2567.92
1226.14	2600.21
1225.23	2572.47
1224.31	2503.83
1223.39	2467.94
1222.48	2560.2
1221.56	2469.79
1220.64	2493.89
1219.73	2411.7
1218.81	2384.03
1217.89	2487.12
1216.97	2579.29
1216.05	2404.55
1215.14	2450.41
1214.22	2324.76
1213.3	2446.82
1212.38	2362.03
1211.46	2405.15
1210.54	2445.53
1209.62	2303.67
1208.7	2414.75
1207.78	2302.86
1206.87	2180.12
1205.95	2285.74
1205.03	2195.66
1204.11	2341.98
1203.18	2336.14
1202.26	2232.52
1201.34	2234.84
1200.42	2256.16
1199.5	2193.33
1198.58	2171.23
1197.66	2168.14
1196.74	2260
1195.82	2216.2
1194.89	2175.12
1193.97	2147.62
1193.05	2149.95
1192.13	2133.31
1191.21	2059.76
1190.28	2097.33
1189.36	2075.29
1188.44	2093.88
1187.51	2074.55
1186.59	2101.26
1185.67	2103.6
1184.74	2054.5
1183.82	2175.93
1182.9	1950.95
1181.97	2066.94
1181.05	2034.12
1180.12	1979.67
1179.2	2017.17
1178.27	2011.41
1177.35	2108.36
1176.42	2053.94
1175.5	2045.47
1174.57	1985.67
1173.65	1971.81
1172.72	1914.75
1171.8	2030.52
1170.87	2003.16
1169.94	1881.35
1169.02	1908
1168.09	1934.64
1167.17	2004.44
1166.24	2022.97
1165.31	1987.55
1164.38	1938.67
1163.46	1992.24
1162.53	1792.43
1161.6	1932.25
1160.67	1783.71
1159.75	1931.56
1158.82	1836.95
1157.89	1860.86
1156.96	1787.83
1156.03	1800.98
1155.1	1795.27
1154.17	1743.83
1153.25	1816.16
1152.32	1797.01
1151.39	1718.69
1150.46	1729.14
1149.53	1704.64
1148.6	1688.21
1147.67	1755.1
1146.74	1709.11
1145.81	1700.74
1144.88	1716.56
1143.94	1684.03
1143.01	1654.19
1142.08	1635.1
1141.15	1675.08
1140.22	1709.67
1139.29	1615.45
1138.36	1668.82
1137.42	1582.68
1136.49	1542.17
1135.56	1509.72
1134.63	1595.25
1133.69	1552.07
1132.76	1530.36
1131.83	1514.01
1130.9	1540.53
1129.96	1500.07
1129.03	1464.99
1128.1	1432.6
1127.16	1459.12
1126.23	1547.19
1125.29	1434.51
1124.36	1479.75
1123.42	1527.64
1122.49	1503.29
1121.56	1478.96
1120.62	1497.41
1119.69	1416.94
1118.75	1406
1117.81	1480.58
1116.88	1397.48
1115.94	1397.23
1115.01	1415.68
1114.07	1439.47
1113.13	1367.12
1112.2	1414.93
1111.26	1412.01
1110.33	1427.77
1109.39	1368.81
1108.45	1397.92
1107.51	1461.68
1106.58	1362.75
1105.64	1370.51
1104.7	1316.95
1103.76	1391.34
1102.82	1465.71
1101.89	1374.86
1100.95	1324
1100.01	1387.69
1099.07	1382.12
1098.13	1352.58
1097.19	1352.34
1096.25	1373.39
1095.31	1335.89
1094.37	1332.99
1093.43	1401.92
1092.49	1375.08
1091.55	1316.33
1090.61	1387.88
1089.67	1307.88
1088.73	1273.1
1087.79	1347.28
1086.85	1320.47
1085.91	1251.17
1084.97	1304.06
1084.03	1295.86
1083.09	1319.53
1082.14	1202.5
1081.2	1305.79
1080.26	1292.29
1079.32	1289.4
1078.38	1339.57
1077.43	1262.42
1076.49	1225.08
1075.55	1259.32
1074.6	1216.69
1073.66	1295.98
1072.72	1316.94
1071.77	1340.55
1070.83	1305.88
1069.89	1284.46
1068.94	1350.43
1068	1270.76
1067.05	1265.24
1066.11	1286.19
1065.16	1233.04
1064.22	1259.28
1063.27	1190.28
1062.33	1213.87
1061.38	1271.82
1060.44	1266.31
1059.49	1287.23
1058.54	1247.36
1057.6	1241.85
1056.65	1342.01
1055.71	1288.95
1054.76	1233.26
1053.81	1227.76
1052.87	1243.38
1051.92	1214.13
1050.97	1266.69
1050.02	1176.75
1049.08	1205.56
1048.13	1192.16
1047.18	1231.5
1046.23	1197.01
1045.28	1310.14
1044.33	1201.85
1043.39	1162.11
1042.44	1167.17
1041.49	1203.84
1040.54	1172.02
1039.59	1179.71
1038.64	1245.32
1037.69	1171.39
1036.74	1197.5
1035.79	1228.86
1034.84	1197.07
1033.89	1096.9
1032.94	1225.57
1031.99	1183.28
1031.04	1175.18
1030.09	1217.03
1029.13	1161.62
1028.18	1182.44
1027.23	1111.29
1026.28	1171.51
1025.33	1147.66
1024.38	1147.45
1023.42	1215.51
1022.47	1160.17
1021.52	1196.7
1020.57	1094.16
1019.61	1135.93
1018.66	1201.3
1017.71	1172.24
1016.75	1114.35
1015.8	1156.09
1014.85	1148.02
1013.89	1150.44
1012.94	1129.27
1011.98	1139.55
1011.03	1181.25
1010.07	1238.65
1009.12	1120.61
1008.16	1117.79
1007.21	1117.59
1006.25	1083.37
1005.3	1164.28
1004.34	1127.45
1003.39	1103.71
1002.43	1103.51
1001.47	1124.23
1000.52	1147.56
999.561	1134.28
998.604	1183.73
997.648	1086.85
996.69	1123.22
995.733	1083.85
994.776	1081.04
993.818	1080.85
992.861	1080.65
991.903	1153.53
990.944	1176.81
989.986	1129.64
989.028	1121.61
988.069	1137.06
987.11	1061.24
986.151	1092.33
985.192	1068.68
984.233	1097.15
983.274	1128.22
982.314	1141.05
981.354	1151.26
980.394	1122.41
979.434	1096.17
978.474	1093.37
977.513	1090.57
976.552	1124.2
975.592	1087.57
974.63	1142.01
973.669	1121
972.708	1089.59
971.746	1175.19
970.785	1063.2
969.823	1050.02
968.861	1125.19
967.898	1119.79
966.936	1104
965.973	1015.5
965.011	1113.99
964.048	1093.02
963.085	1046.1
962.121	1123.77
961.158	1079.46
960.194	1092.23
959.231	1120.57
958.267	1068.5
957.302	1091.65
956.338	1031.82
955.374	1070.52
954.409	1054.77
953.444	1121.95
952.479	1111.39
951.514	1129.32
950.549	1046.25
949.583	1084.9
948.617	1082.11
947.651	1079.33
946.685	1079.14
945.719	1063.42
944.753	1089.09
943.786	1122.52
942.82	1062.84
941.853	1057.48
940.885	1021.1
939.918	1188.91
938.951	1080.17
937.983	1064.47
937.015	1048.78
936.047	1087.33
935.079	1020
934.111	1050.79
933.142	1107.39
932.174	1073.64
931.205	1081.19
930.236	1029.4
929.267	1096.28
928.297	1090.92
927.328	1028.84
926.358	1023.5
925.388	1005.27
924.418	1028.28
923.448	1131.17
922.478	1089.74
921.507	1105
920.536	1004.37
919.565	1050.53
918.594	1088.96
917.623	1119.65
916.651	1052.54
915.68	1021.47
914.708	1047.01
913.736	1039.11
912.764	1026.06
911.791	1023.3
910.819	1025.69
909.846	1112.89
908.873	1009.9
907.9	1025.14
906.927	1030.09
905.954	1173.73
904.98	1016.88
904.006	1075.74
903.032	1075.55
902.058	1018.89
901.084	1085.42
900.11	1005.7
899.135	1067.08
898.16	1074.58
897.185	1128.23
896.21	1081.88
895.235	1035.55
894.259	1037.92
893.284	1032.61
892.308	1134.9
891.332	1114.2
890.355	1121.68
889.379	1029.3
888.403	1044.48
887.426	1082.68
886.449	1069.69
885.472	1061.82
884.494	1092.33
883.517	1110.03
882.539	1112.39
881.562	1117.3
880.584	1119.66
879.605	1037.67
878.627	1109.03
877.649	1111.38
876.67	1072.87
875.691	1052.24
874.712	1046.94
873.733	1033.99
872.753	1028.7
871.774	1107.63
870.794	1028.32
869.814	1056.2
868.834	1068.76
867.854	1134.88
866.873	1068.38
865.893	1050.34
864.912	1129.16
863.931	1111.12
862.95	1095.63
861.968	1138.74
860.987	1044.29
860.005	1097.58
859.023	1153.4
858.041	1127.73
857.059	1109.71
856.077	1134.96
855.094	1124.57
854.111	1093.84
853.128	1055.5
852.145	1068.02
851.162	1121.22
850.178	1075.26
849.195	1075.06
848.211	1069.79
847.227	1051.81
846.243	1023.68
845.258	1130.16
844.274	1056.31
843.289	1061.2
842.304	1073.7
841.319	1065.89
840.334	1058.08
839.348	1083.26
838.363	1128.72
837.377	1016.93
836.391	1097.89
835.405	1019.1
834.418	1046.79
833.432	1082.08
832.445	1112.29
831.458	1015.83
830.471	1111.89
829.484	1045.84
828.496	1091.23
827.509	1002.43
826.521	1070.58
825.533	1070.39
824.545	1080.32
823.557	1097.83
822.568	966.114
821.579	1102.48
820.591	1082.06
819.602	1043.95
818.612	1063.98
817.623	1061.25
816.633	1104.01
815.644	1108.86
814.654	1090.98
813.664	1078.16
812.673	1070.39
811.683	1110.58
810.692	1037.19
809.701	1142.98
808.71	1044.38
807.719	1117.34
806.728	1056.61
805.736	1081.63
804.744	1094.04
803.753	1111.48
802.76	1040.72
801.768	1065.73
800.776	1035.31
799.783	1090.53
798.79	1062.63
797.797	1080.06
796.804	1059.73
795.811	1064.57
794.817	1102.12
793.823	1036.51
792.83	1152.02
791.835	1116.6
790.841	993.194
789.847	1030.72
788.852	1030.53
787.857	1090.66
786.862	1105.54
785.867	1077.7
784.872	1130.25
783.876	1032.11
782.881	1046.98
781.885	1059.35
780.889	1054.13
779.892	1121.69
778.896	1026.15
777.899	1081.15
776.902	1128.6
775.905	1115.86
774.908	1125.69
773.911	1100.41
772.913	1100.21
771.916	1079.97
770.918	1087.29
769.92	1132.17
768.921	1109.43
767.923	1146.78
766.924	1156.59
765.926	1091.3
764.927	1056.07
763.927	1153.45
762.928	1058.18
761.928	1088
760.929	1127.82
759.929	1082.61
758.929	1119.9
757.928	1109.7
756.928	1136.99
755.927	1051.83
754.927	1091.61
753.926	1078.92
752.924	1073.73
751.923	1091.01
750.921	1058.36
749.92	1073.14
748.918	1100.39
747.916	1057.78
746.913	1025.16
745.911	1127.22
744.908	1094.6
743.906	1069.47
742.903	1104.17
741.899	1069.08
740.896	1078.85
739.892	1063.71
738.889	1090.91
737.885	1078.26
736.881	1095.49
735.876	1105.25
734.872	1060.25
733.867	1067.52
732.862	1084.74
731.857	1129.32
730.852	1211.18
729.847	1049.33
728.841	1029.25
727.835	1103.64
726.829	1063.67
725.823	1103.23
724.817	1117.94
723.81	1100.34
722.804	1100.14
721.797	1047.8
720.79	1062.5
719.783	1139.25
718.775	1094.37
717.768	1094.17
716.76	1108.86
715.752	1068.97
714.744	1108.45
713.735	1036.35
712.727	1117.96
711.718	1130.15
710.709	1154.72
709.7	1095.05
708.691	1127.05
707.681	1102.08
706.672	1109.3
705.662	1126.43
704.652	1126.22
703.642	1076.52
702.631	1145.61
701.621	1204.77
700.61	1155.08
699.599	1194.43
698.588	1162.07
697.577	1112.42
696.565	1117.16
695.553	1154.02
694.541	1138.98
693.529	1109.13
692.517	1183.02
691.505	1138.36
690.492	1123.34
689.479	1150.28
688.466	1150.07
687.453	1122.72
686.44	1166.92
685.426	1095.17
684.413	1144.3
683.399	1112.03
682.385	1082.24
681.37	1151.06
680.356	1116.35
679.341	1128.46
678.326	1165.21
677.311	1110.81
676.296	1142.62
675.281	1105.47
674.265	1048.65
673.249	1173.98
672.233	1107.33
671.217	1151.41
670.201	1146.28
669.184	1148.53
668.168	1182.74
667.151	1148.1
666.134	1155.27
665.116	1118.19
664.099	1176.96
663.081	1137.43
662.063	1134.77
661.045	1164.03
660.027	1146.63
659.009	1143.96
657.99	1075.03
656.972	1123.91
655.953	1153.14
654.933	1098.96
653.914	1204.22
652.895	1208.91
651.875	1164.55
650.855	1100.61
649.835	1144.52
648.815	1154.11
647.794	1183.3
646.774	1153.69
645.753	1212.25
644.732	1199.78
643.71	1231.39
642.689	1184.66
641.668	1152.62
640.646	1145.07
639.624	1181.55
638.602	1181.34
637.579	1212.91
636.557	1215.13
635.534	1180.68
634.511	1153.58
633.488	1141.15
632.465	1209.35
631.441	1184.7
630.418	1208.9
629.394	1181.82
628.37	1137.66
627.346	1176.5
626.321	1190.93
625.297	1198.03
624.272	1161.22
623.247	1219.54
622.222	1226.63
621.196	1206.9
620.171	1165.24
619.145	1182.08
618.119	1233.04
617.093	1242.56
616.067	1135.15
615.04	1195.82
614.014	1190.73
612.987	1236.77
611.96	1246.28
610.932	1187.64
609.905	1282.32
608.877	1303.98
607.849	1225.9
606.821	1169.74
605.793	1147.64
604.765	1193.62
603.736	1251.73
602.708	1200.47
601.679	1248.84
600.649	1221.89
599.62	1204.66
598.591	1214.15
597.561	1209.07
596.531	1228.27
595.501	1237.75
594.471	1213.25
593.44	1159.66
592.409	1212.81
591.379	1222.28
590.348	1243.88
589.316	1309.1
588.285	1216.76
587.253	1216.53
586.221	1211.46
585.189	1240.31
584.157	1240.08
583.125	1218.05
582.092	1239.62
581.059	1222.45
580.027	1256.1
578.993	1202.63
577.96	1258.06
576.927	1233.64
575.893	1276.94
574.859	1223.51
573.825	1252.29
572.79	1191.63
571.756	1191.41
570.721	1227.43
569.686	1229.62
568.651	1214.9
567.616	1202.6
566.581	1219.28
565.545	1211.81
564.509	1242.97
563.473	1269.28
562.437	1211.14
561.401	1278.46
560.364	1283.04
559.327	1203.23
558.29	1284.98
557.253	1217.25
556.216	1238.72
555.178	1195.11
554.14	1327.39
553.102	1225.98
552.064	1225.76
551.026	1201.45
549.987	1287.89
548.949	1217.85
547.91	1333.14
546.871	1275.15
545.831	1236.42
544.792	1231.38
543.752	1238.37
542.712	1341.52
541.672	1276.37
540.632	1259.31
539.592	1290.31
538.551	1270.85
537.51	1299.44
536.469	1371.24
535.428	1229.33
534.387	1272.31
533.345	1238.47
532.303	1291.04
531.261	1324.39
530.219	1254.57
529.177	1338.28
528.134	1304.46
527.091	1282.65
526.048	1284.8
525.005	1356.46
523.962	1375.38
522.918	1336.79
521.874	1358.1
520.831	1362.64
519.786	1295.34
518.742	1381.28
517.698	1357.09
516.653	1356.84
515.608	1375.73
514.563	1454.41
513.518	1451.75
512.472	1482.57
511.426	1513.37
510.381	1572.85
509.335	1503.25
508.288	1579.43
507.242	1576.75
506.195	1521.52
505.148	1549.9
504.101	1451.71
503.054	1444.28
502.007	1432.08
500.959	1455.68
499.911	1486.42
498.863	1376.41
497.815	1321.3
496.767	1406.9
495.718	1296.97
494.669	1311.03
493.62	1341.77
492.571	1315.31
491.522	1398.44
490.472	1379.13
489.422	1412.21
488.372	1378.62
487.322	1356.93
486.272	1399.52
485.221	1430.2
484.17	1427.55
483.12	1486.76
482.068	1493.62
481.017	1531.38
479.966	1500.19
478.914	1518.93
477.862	1521.02
476.81	1456.58
475.757	1392.17
474.705	1463.17
473.652	1427.27
472.599	1431.75
471.546	1384.01
470.493	1374.26
469.439	1440.44
468.386	1397.47
467.332	1423.3
466.278	1408.81
465.223	1441.74
464.169	1472.29
463.114	1443.57
462.059	1421.98
461.004	1480.95
459.949	1433.29
458.894	1499.34
457.838	1425.65
456.782	1460.9
455.726	1439.32
454.67	1507.69
453.613	1381.99
452.557	1500.03
451.5	1421.69
450.443	1393.04
449.386	1440.08
448.328	1444.54
447.271	1439.54
446.213	1427.45
445.155	1448.45
444.096	1419.83
443.038	1424.29
441.979	1440.56
440.921	1440.29
439.862	1477.79
438.802	1477.51
437.743	1418.24
436.683	1377.87
435.624	1446.02
434.564	1429.24
433.503	1398.32
432.443	1393.34
431.382	1459.08
430.322	1373.97
429.261	1420.83
428.199	1406.43
427.138	1417.95
426.076	1474.2
425.015	1419.77
423.953	1454.82
422.89	1442.78
421.828	1437.8
420.765	1444.59
419.703	1392.57
418.64	1385.25
417.576	1500.21
416.513	1471.72
415.45	1415.03
414.386	1544.02
413.322	1529.64
412.258	1449.48
411.193	1418.67
410.129	1460.67
409.064	1467.44
407.999	1366.23
406.934	1389.44
405.868	1494.78
404.803	1424.11
403.737	1489.53
402.671	1458.76
401.605	1474.9
400.538	1437.11
399.472	1420.44
398.405	1399.08
397.338	1501.91
396.271	1407.93
395.204	1480.27
394.136	1412.08
393.068	1446.94
392	1430.28
390.932	1469.8
389.864	1453.14
388.795	1476.27
387.726	1483.01
386.657	1414.91
385.588	1414.64
384.519	1470.48
383.449	1369.7
382.379	1399.82
381.31	1441.62
380.239	1403.97
379.169	1469.1
378.098	1408.11
377.028	1407.85
375.957	1414.59
374.885	1465.67
373.814	1383.72
372.742	1486.11
371.671	1380.87
370.599	1452.91
369.526	1406
368.454	1447.7
367.381	1494.04
366.309	1435.5
365.236	1465.52
364.163	1427.97
363.089	1485.93
362.015	1457.71
360.942	1464.42
359.868	1452.51
358.793	1461.54
357.719	1477.56
356.644	1381.89
355.57	1483.98
354.495	1546.49
353.419	1490.4
352.344	1501.74
351.268	1429.4
350.193	1410.55
349.117	1470.69
348.04	1495.96
346.964	1416.72
345.887	1458.25
344.81	1469.58
343.733	1427.52
342.656	1503.84
341.579	1482.67
340.501	1489.35
339.423	1479.8
338.345	1528.22
337.267	1493.15
336.188	1455.78
335.11	1487.95
334.031	1478.4
332.952	1459.59
331.873	1496.38
330.793	1475.25
329.713	1486.55
328.633	1453.86
327.553	1573.95
326.473	1437.11
325.393	1455.35
324.312	1475.9
323.231	1471
322.15	1461.47
321.069	1509.75
319.987	1527.95
318.905	1476.82
317.823	1423.4
316.741	1494.75
315.659	1501.39
314.576	1554.23
313.494	1403.85
312.411	1449.76
311.328	1546.42
310.244	1527.67
309.161	1529.69
308.077	1478.65
306.993	1538.34
305.909	1489.62
304.824	1477.81
303.74	1535.16
302.655	1562.53
301.57	1458.54
300.485	1472.09
299.4	1545.52
298.314	1489.96
297.228	1508.1
296.142	1491.7
295.056	1608.8
293.969	1608.49
292.883	1569.08
291.796	1575.68
290.709	1600.68
289.622	1563.59
288.534	1643.76
287.447	1615.86
286.359	1565
285.271	1578.49
284.182	1585.08
283.094	1616.94
282.005	1618.93
280.916	1531.38
279.827	1549.45
278.738	1615.72
277.649	1626.89
276.559	1608.22
275.469	1502.41
274.379	1557.16
273.288	1579.8
272.198	1602.42
271.107	1556.28
270.016	1629.32
268.925	1608.39
267.834	1573.72
266.742	1651.29
265.65	1616.63
264.558	1673.56
263.466	1659.51
262.374	1668.35
261.281	1681.77
260.188	1729.49
259.095	1635.38
258.002	1641.94
256.909	1669.06
255.815	1641.31
254.721	1586.15
253.627	1693.25
252.533	1612.97
251.438	1605.81
250.344	1646.61
249.249	1680.55
248.154	1618.59
247.059	1574.92
245.963	1595.16
244.867	1562.91
243.771	1548.93
242.675	1628.46
241.579	1605.35
240.482	1643.81
239.386	1604.74
238.289	1561.14
237.192	1595.02
236.094	1565.1
234.997	1569.36
233.899	1625.99
232.801	1630.24
231.703	1707.33
230.604	1579.55
229.506	1649.79
228.407	1640.38
227.308	1644.62
226.208	1637.48
225.109	1655.36
224.009	1691.42
222.909	1697.92
221.809	1727.14
220.709	1626.84
219.609	1710.58
218.508	1730.7
217.407	1646.35
216.306	1741.4
215.204	1713.83
214.103	1724.85
213.001	1710.91
211.899	1685.62
210.797	1739.74
209.695	1771.16
208.592	1820.71
207.489	1745.55
206.386	1826.81
205.283	1797.01
204.18	1749.09
203.076	1780.47
201.972	1829.96
200.868	1729.98
199.764	1727.38
198.659	1763.27
197.555	1790.09
196.45	1773.91
195.345	1719.28
194.239	1782.29
193.134	1734.46
192.028	1811
190.922	1821.96
189.816	1789.97
188.709	1819
187.603	1811.88
186.496	1845.42
185.389	1813.45
184.282	1788.27
183.174	1817.27
182.067	1866.58
180.959	1766.94
179.851	1829.77
178.743	1766.26
177.634	1797.5
176.525	1752.06
175.417	1812.6
174.307	1819.02
173.198	1755.57
172.089	1782.27
170.979	1694.07
169.869	1898.71
168.759	1846.56
167.648	1807.93
166.538	1839.1
165.427	1852.26
164.316	1752.89
163.205	1775.06
162.093	1810.71
160.982	1776.63
159.87	1787.53
158.758	1793.94
157.645	1908.22
156.533	1806.74
155.42	1795.16
154.307	1839.74
153.194	1868.59
152.081	1850.27
150.967	1834.2
149.853	1887.72
148.739	1840.23
147.625	1848.85
146.511	1891.13
145.396	1895.25
144.281	1802.95
143.166	1838.48
142.051	1898.65
140.935	1815.36
139.82	1947.22
138.704	1834.83
137.588	1850.16
136.471	1813.98
135.355	1847.21
134.238	1831.19
133.121	1873.37
132.004	1902.1
130.886	1886.08
129.769	1874.53
128.651	1865.23
127.533	1860.4
126.415	1920.4
125.296	1908.86
124.178	1930.84
123.059	1934.94
121.94	1854.15
120.82	1891.77
119.701	1956.16
118.581	1980.35
117.461	1944.26
116.341	1939.42
115.22	1974.75
114.1	1907.45
112.979	1947.23
111.858	1904.49
110.737	1988.85
109.615	1856.94
108.494	1794.18
107.372	1802.75
106.25	1717.74
105.127	1637.22
104.005	1654.73
102.882	1618.78
101.759	1620.7
100.636	1551.39
