3201.26	8.42257
3200.67	8.42257
3200.08	42.1065
3199.48	37.8901
3198.89	42.0938
3198.3	8.41748
3197.7	12.6243
3197.11	25.2448
3196.51	37.8615
3195.92	37.8558
3195.32	21.0278
3194.73	54.6641
3194.13	16.8172
3193.54	33.6293
3192.95	8.40604
3192.35	46.2263
3191.76	21.0088
3191.16	12.6033
3190.56	29.4034
3189.97	25.1991
3189.37	37.7929
3188.78	33.5886
3188.18	37.7815
3187.59	20.9865
3186.99	41.9667
3186.4	29.3723
3185.8	58.7357
3185.2	16.7791
3184.61	29.3589
3184.01	8.387
3183.42	29.3501
3182.82	71.268
3182.22	37.7244
3181.63	62.8645
3181.03	16.7613
3180.43	29.3279
3179.84	33.5125
3179.24	20.9421
3178.64	20.939
3178.05	37.6845
3177.45	33.4922
3176.85	54.4166
3176.25	46.0379
3175.66	37.6617
3175.06	29.288
3174.46	41.8336
3173.86	46.01
3173.27	25.0926
3172.67	29.2702
3172.07	20.9042
3171.47	41.802
3170.87	33.4365
3170.28	33.4315
3169.68	50.1396
3169.08	16.7107
3168.48	33.4163
3167.88	37.5876
3167.28	37.5819
3166.68	50.1016
3166.09	58.4431
3165.49	41.7387
3164.89	62.5986
3164.29	29.2083
3163.69	33.3758
3163.09	70.9129
3162.49	50.0486
3161.89	25.0205
3161.29	33.3556
3160.69	54.1946
3160.09	58.3546
3159.49	20.8378
3158.89	50.0031
3158.29	41.6629
3157.69	41.6566
3157.09	41.6503
3156.49	24.9864
3155.89	16.6551
3155.29	16.6525
3154.69	54.1126
3154.09	29.1331
3153.49	45.7737
3152.89	33.2849
3152.29	4.15998
3151.69	74.8683
3151.08	58.2221
3150.48	20.7904
3149.88	45.732
3149.28	16.6273
3148.68	49.8744
3148.08	24.9334
3147.48	45.7043
3146.87	20.7715
3146.27	41.5368
3145.67	45.6835
3145.07	24.9145
3144.47	8.30358
3143.86	53.9651
3143.26	49.8063
3142.66	12.4497
3142.06	29.0449
3141.45	29.0405
3140.85	45.6281
3140.25	37.3264
3139.64	49.761
3139.04	37.3151
3138.44	33.1639
3137.84	41.4486
3137.23	20.7212
3136.63	49.7233
3136.03	45.5727
3135.42	49.7082
3134.82	45.5589
3134.21	20.7054
3133.61	24.8428
3133.01	33.1187
3132.4	37.2528
3131.8	16.5543
3131.19	66.2071
3130.59	4.13732
3129.99	33.0935
3129.38	45.4967
3128.78	28.948
3128.17	33.0784
3127.57	12.4025
3126.96	16.5342
3126.36	33.0634
3125.75	0
3125.15	45.4483
3124.54	20.6552
3123.94	66.0866
3123.33	33.0383
3122.73	45.4207
3122.12	24.7712
3121.52	45.4069
3120.91	0
3120.3	0
3119.7	0
3119.09	24.7524
3118.49	24.7486
3117.88	24.7448
3117.27	8.24702
3116.67	53.5975
3116.06	37.1003
3115.45	37.0947
3114.85	12.363
3114.24	24.7223
3113.63	24.7185
3113.03	41.1912
3112.42	24.711
3111.81	12.3536
3111.21	20.5862
3110.6	0
3109.99	37.0439
3109.38	-4.11537
3108.78	37.0327
3108.17	57.5976
3107.56	53.4754
3106.95	12.3386
3106.34	24.6734
3105.74	-8.22322
3105.13	8.22197
3104.52	41.1036
3103.91	4.10973
3103.3	61.6366
3102.7	12.3255
3102.09	36.9707
3101.48	16.4289
3100.87	28.7463
3100.26	32.8479
3099.65	36.9482
3099.04	32.8379
3098.43	32.8329
3097.82	41.0348
3097.21	12.3086
3096.61	53.329
3096	32.8129
3095.39	24.6059
3094.78	36.9032
3094.17	16.3989
3093.56	61.4867
3092.95	20.4924
3092.34	0
3091.73	57.3613
3091.12	24.5797
3090.51	20.48
3089.9	12.2861
3089.28	28.6632
3088.67	45.0353
3088.06	32.748
3087.45	-4.09287
3086.84	20.4612
3086.23	20.4581
3085.62	77.729
3085.01	24.5423
3084.4	53.1668
3083.79	20.4457
3083.17	40.8851
3082.56	49.0546
3081.95	28.6108
3081.34	28.6065
3080.73	28.6021
3080.12	40.8539
3079.5	28.5934
3078.89	44.9256
3078.28	28.5847
3077.67	24.4974
3077.05	32.6582
3076.44	69.3881
3075.83	48.9724
3075.22	48.9649
3074.6	32.6383
3073.99	36.7125
3073.38	28.5498
3072.77	36.7013
3072.15	8.1546
3071.54	28.5367
3070.93	69.2929
3070.31	28.528
3069.7	24.4489
3069.08	36.6677
3068.47	28.515
3067.86	61.0942
3067.24	48.8679
3066.63	28.5019
3066.02	16.2843
3065.4	4.07046
3064.79	44.7682
3064.17	56.969
3063.56	28.4802
3062.94	24.4079
3062.33	24.4041
3061.71	20.3337
3061.1	73.19
3060.48	32.5239
3059.87	28.4541
3059.25	44.7067
3058.64	44.6999
3058.02	28.4411
3057.41	36.5615
3056.79	12.1853
3056.18	16.2446
3055.56	28.4237
3054.95	48.7189
3054.33	40.5929
3053.71	36.528
3053.1	12.1741
3052.48	52.7465
3051.87	20.284
3051.25	56.7866
3050.63	52.7224
3050.02	32.4396
3049.4	44.5976
3048.78	24.3222
3048.17	16.2123
3047.55	24.3148
3046.93	56.7259
3046.31	32.4098
3045.7	40.5061
3045.08	48.5999
3044.46	28.3456
3043.85	12.1463
3043.23	8.09627
3042.61	20.2376
3041.99	20.2345
3041.37	16.1851
3040.76	20.2283
3040.14	8.09008
3039.52	20.2221
3038.9	32.3504
3038.28	56.6046
3037.67	56.5959
3037.05	52.5453
3036.43	40.4133
3035.81	28.285
3035.19	44.441
3034.57	40.3947
3033.95	40.3885
3033.33	28.2677
3032.71	36.3386
3032.1	56.518
3031.48	16.1455
3030.86	28.2504
3030.24	52.4569
3029.62	24.2072
3029	48.4069
3028.38	40.3329
3027.76	44.3595
3027.14	28.2244
3026.52	44.3459
3025.9	80.6165
3025.28	52.3927
3024.66	40.2959
3024.04	16.1159
3023.42	24.1701
3022.8	40.2774
3022.17	40.2712
3021.55	32.2121
3020.93	40.2589
3020.31	52.3285
3019.69	24.1479
3019.07	44.2644
3018.45	68.3982
3017.83	52.2965
3017.2	40.2219
3016.58	52.2805
3015.96	36.1886
3015.34	24.1221
3014.72	40.1973
3014.1	40.1911
3013.47	40.1849
3012.85	68.3039
3012.23	52.2244
3011.61	44.1831
3010.98	36.1443
3010.36	36.1387
3009.74	40.148
3009.12	28.0993
3008.49	44.1493
3007.87	36.1166
3007.25	32.0987
3006.62	48.1407
3006	40.1111
3005.38	52.1364
3004.75	48.1185
3004.13	36.0834
3003.51	52.1124
3002.88	28.0562
3002.26	44.0816
3001.63	52.0884
3001.01	16.0248
3000.39	60.0836
2999.76	12.0149
2999.14	36.0391
2998.51	24.0224
2997.89	52.0405
2997.26	20.0125
2996.64	32.0151
2996.02	40.0127
2995.39	48.0079
2994.77	40.0004
2994.14	15.9977
2993.51	35.9893
2992.89	43.9802
2992.26	31.9807
2991.64	47.9637
2991.01	27.9745
2990.39	15.983
2989.76	19.9757
2989.14	27.9616
2988.51	27.9574
2987.88	75.8726
2987.26	43.9195
2986.63	63.8731
2986.01	43.906
2985.38	43.8993
2984.75	27.9316
2984.13	31.9169
2983.5	31.912
2982.87	55.8375
2982.25	47.8533
2981.62	19.9358
2980.99	31.8924
2980.36	27.9016
2979.74	51.8092
2979.11	31.8777
2978.48	47.8092
2977.85	35.8514
2977.23	59.7432
2976.6	43.8049
2975.97	27.8716
2975.34	27.8673
2974.71	39.8043
2974.09	15.9193
2973.46	43.7713
2972.83	0
2972.2	39.7798
2971.57	23.8642
2970.94	3.97676
2970.32	71.5706
2969.69	19.8777
2969.06	39.7492
2968.43	55.6404
2967.8	63.5792
2967.17	11.9193
2966.54	31.7798
2965.91	43.6905
2965.28	39.7126
2964.65	31.7652
2964.02	47.6404
2963.39	39.6942
2962.76	55.5634
2962.13	51.5866
2961.5	71.4166
2960.87	39.6698
2960.24	31.731
2959.61	7.93152
2958.98	43.6166
2958.35	47.5745
2957.72	43.6032
2957.09	51.5231
2956.46	35.6644
2955.83	23.7726
2955.2	75.2683
2954.57	27.7261
2953.93	39.6027
2953.3	59.3949
2952.67	27.7133
2952.04	43.5428
2951.41	43.5361
2950.78	59.3583
2950.14	31.6529
2949.51	39.56
2948.88	67.2416
2948.25	39.5478
2947.62	39.5417
2946.98	47.4428
2946.35	55.3414
2945.72	82.9992
2945.09	43.4691
2944.45	47.4135
2943.82	51.3567
2943.19	75.0483
2942.55	43.4423
2941.92	47.3843
2941.29	67.1174
2940.65	55.2646
2940.02	51.3093
2939.39	59.1939
2938.75	47.3478
2938.12	43.3954
2937.49	39.4443
2936.85	43.3821
2936.22	63.0915
2935.58	70.9669
2934.95	59.13
2934.32	35.4725
2933.68	74.8749
2933.05	55.1625
2932.41	55.154
2931.78	43.3286
2931.14	74.8287
2930.51	86.6304
2929.87	39.3714
2929.24	47.2384
2928.6	51.167
2927.97	70.8357
2927.33	62.9553
2926.7	66.8797
2926.06	51.1354
2925.43	39.3289
2924.79	66.8488
2924.15	3.93167
2923.52	62.8971
2922.88	35.3741
2922.25	55.0179
2921.61	23.5755
2920.97	66.7869
2920.34	31.4243
2919.7	39.2743
2919.06	66.7559
2918.43	51.0408
2917.79	54.9585
2917.15	66.725
2916.52	58.8659
2915.88	35.3141
2915.24	51.0014
2914.6	47.0709
2913.97	47.0637
2913.33	39.2137
2912.69	62.7322
2912.05	50.962
2911.42	27.4368
2910.78	39.1894
2910.14	39.1834
2909.5	66.6014
2908.86	82.2596
2908.23	74.4139
2907.59	54.8228
2906.95	58.7297
2906.31	46.9765
2905.67	58.7115
2905.03	54.7889
2904.39	58.6934
2903.75	86.0703
2903.12	66.4986
2902.48	35.1997
2901.84	66.478
2901.2	58.648
2900.56	78.1852
2899.92	70.3558
2899.28	46.8966
2898.64	66.4266
2898	46.8821
2897.36	58.5936
2896.72	50.7733
2896.08	58.5755
2895.44	58.5664
2894.8	42.9421
2894.16	81.9676
2893.52	117.078
2892.88	50.7261
2892.24	58.5211
2891.59	66.3137
2890.95	66.3034
2890.31	70.1927
2889.67	85.7778
2889.03	42.8823
2888.39	74.0579
2887.75	50.6634
2887.11	66.2419
2886.46	77.9195
2885.82	58.4306
2885.18	66.2111
2884.54	66.2008
2883.9	50.6163
2883.25	73.9663
2882.61	97.309
2881.97	97.2939
2881.33	58.3673
2880.68	77.811
2880.04	77.799
2879.4	58.3402
2878.76	89.4411
2878.11	85.5391
2877.47	73.8632
2876.83	101.06
2876.18	81.613
2875.54	73.8289
2874.9	34.9662
2874.25	81.5751
2873.61	42.7232
2872.97	69.8998
2872.32	38.8272
2871.68	65.996
2871.03	54.3413
2870.39	54.3328
2869.75	42.6835
2869.1	38.7971
2868.46	54.3076
2867.81	54.2991
2867.17	34.9012
2866.52	62.0369
2865.88	62.0273
2865.23	77.5221
2864.59	69.7591
2863.94	81.373
2863.3	139.475
2862.65	73.6003
2862.01	73.5889
2861.36	38.725
2860.71	96.7975
2860.07	65.8121
2859.42	61.9312
2858.78	69.6618
2858.13	54.173
2857.48	46.4268
2856.84	85.1025
2856.19	69.6185
2855.55	88.9432
2854.9	61.8639
2854.25	27.0613
2853.61	108.228
2852.96	85.0233
2852.31	81.146
2851.66	54.0889
2851.02	73.395
2850.37	96.5574
2849.72	69.5105
2849.08	46.3332
2848.43	50.1865
2847.78	65.6183
2847.13	69.4674
2846.48	57.8805
2845.84	23.1486
2845.19	77.15
2844.54	53.9966
2843.89	42.4193
2843.24	46.2684
2842.59	61.6817
2841.95	50.1086
2841.3	107.909
2840.65	30.8265
2840	53.9379
2839.35	84.7464
2838.7	88.5848
2838.05	69.3164
2837.4	38.5031
2836.75	57.7457
2836.1	69.2841
2835.45	26.9396
2834.81	46.1751
2834.16	50.0152
2833.51	30.7738
2832.86	46.1535
2832.21	65.374
2831.56	49.9841
2830.9	15.3773
2830.25	42.2811
2829.6	23.0588
2828.95	23.0552
2828.3	42.2614
2827.65	53.7788
2827	42.2482
2826.35	49.922
2825.7	49.9142
2825.05	3.83896
2824.4	11.5151
2823.74	34.5399
2823.09	53.7203
2822.44	49.8754
2821.79	65.2115
2821.14	42.1891
2820.49	49.8521
2819.83	19.1709
2819.18	30.6687
2818.53	19.1649
2817.88	26.8267
2817.23	38.3179
2816.57	34.4808
2815.92	26.8142
2815.27	26.81
2814.61	84.247
2813.96	57.4322
2813.31	26.7975
2812.66	30.621
2812	49.7513
2811.35	19.1321
2810.7	26.7808
2810.04	26.7766
2809.39	49.7203
2808.73	45.8885
2808.08	26.7641
2807.43	38.2285
2806.77	38.2226
2806.12	42.0383
2805.46	34.3896
2804.81	84.0504
2804.15	34.3789
2803.5	64.9278
2802.85	22.9121
2802.19	64.9075
2801.54	22.905
2800.88	49.6197
2800.23	45.7957
2799.57	68.6828
2798.92	45.7814
2798.26	49.5888
2797.6	26.6975
2796.95	30.5067
2796.29	41.9401
2795.64	38.1214
2794.98	45.7386
2794.33	7.62191
2793.67	38.1036
2793.01	34.2879
2792.36	38.0917
2791.7	45.7029
2791.04	68.5437
2790.39	34.2665
2789.73	41.8747
2789.07	45.6744
2788.42	30.4449
2787.76	64.6852
2787.1	45.653
2786.45	68.4689
2785.79	45.6388
2785.13	45.6317
2784.47	26.6143
2783.82	49.4189
2783.16	41.8094
2782.5	34.2024
2781.84	45.5961
2781.18	18.9954
2780.53	49.3803
2779.87	49.3726
2779.21	22.7838
2778.55	64.544
2777.89	45.5534
2777.23	30.3642
2776.57	30.3594
2775.92	26.5604
2775.26	64.4936
2774.6	53.1041
2773.94	49.3033
2773.28	45.5036
2772.62	18.9569
2771.96	60.6525
2771.3	37.9019
2770.64	15.1584
2769.98	30.312
2769.32	64.403
2768.66	26.5147
2768	41.6595
2767.34	30.2931
2766.68	56.7907
2766.02	26.4982
2765.36	30.2789
2764.7	41.627
2764.04	49.1878
2763.38	22.6985
2762.72	37.825
2762.06	22.6914
2761.39	45.3758
2760.73	30.2458
2760.07	56.702
2759.41	30.2363
2758.75	41.5684
2758.09	30.2269
2757.43	49.111
2756.76	0
2756.1	33.9893
2755.44	26.432
2754.78	64.1819
2754.12	41.5229
2753.45	45.2907
2752.79	56.6045
2752.13	52.8226
2751.46	33.9521
2750.8	33.9468
2750.14	52.7978
2749.48	86.7257
2748.81	37.7009
2748.15	49.0035
2747.49	41.458
2746.82	64.0615
2746.16	48.9805
2745.5	71.5757
2744.83	41.4321
2744.17	26.3617
2743.5	45.1845
2742.84	26.3535
2742.18	37.6419
2741.51	48.9268
2740.85	52.6822
2740.18	37.6242
2739.52	63.9512
2738.85	67.7024
2738.19	41.3672
2737.52	48.8809
2736.86	45.1138
2736.19	67.66
2735.53	26.3081
2734.86	48.8503
2734.2	30.057
2733.53	26.2957
2732.87	15.0238
2732.2	45.0643
2731.54	41.3025
2730.87	41.296
2730.2	41.2895
2729.54	11.259
2728.87	48.7814
2728.2	45.0219
2727.54	60.0198
2726.87	52.5091
2726.21	56.2509
2725.54	56.2421
2724.87	63.7311
2724.2	29.9864
2723.54	63.7111
2722.87	59.954
2722.2	48.705
2721.54	41.2054
2720.87	37.4536
2720.2	26.2134
2719.53	44.9302
2718.87	59.8976
2718.2	41.1731
2717.53	63.6212
2716.86	59.8694
2716.19	33.6713
2715.52	48.6286
2714.86	26.1805
2714.19	52.3528
2713.52	37.389
2712.85	44.8598
2712.18	41.115
2711.51	56.0571
2710.84	33.629
2710.17	63.5115
2709.5	48.56
2708.84	37.348
2708.17	56.0131
2707.5	44.8035
2706.83	52.2625
2706.16	44.7894
2705.49	26.1231
2704.82	37.3128
2704.15	52.2297
2703.48	89.5226
2702.81	67.1314
2702.14	22.3736
2701.47	52.1969
2700.79	22.3666
2700.12	29.8174
2699.45	33.5393
2698.78	33.5341
2698.11	37.2542
2697.44	63.3222
2696.77	59.588
2696.1	48.4076
2695.43	59.5693
2694.75	52.1149
2694.08	52.1067
2693.41	78.1478
2692.74	52.0903
2692.07	40.9217
2691.39	33.4761
2690.72	40.9088
2690.05	40.9024
2689.38	29.7425
2688.71	26.0206
2688.03	70.6163
2687.36	37.1606
2686.69	70.5941
2686.01	3.71489
2685.34	59.4289
2684.67	77.9882
2683.99	51.984
2683.32	74.2511
2682.65	40.8317
2681.97	25.9797
2681.3	48.2404
2680.63	44.5226
2679.95	48.2253
2679.28	40.7996
2678.6	25.9593
2677.93	33.371
2677.26	66.7314
2676.58	18.5336
2675.91	66.7104
2675.23	29.6444
2674.56	62.9844
2673.88	55.5658
2673.21	40.7418
2672.53	40.7354
2671.86	33.3237
2671.18	37.0205
2670.51	44.4176
2669.83	55.5133
2669.16	62.9051
2668.48	62.8952
2667.8	40.6905
2667.13	70.2725
2666.45	66.5635
2665.78	44.3687
2665.1	44.3617
2664.42	29.5698
2663.75	48.0433
2663.07	55.4259
2662.39	33.2503
2661.72	51.7145
2661.04	18.4666
2660.36	73.8546
2659.69	25.845
2659.01	36.9157
2658.33	66.4377
2657.65	36.904
2656.98	62.727
2656.3	14.757
2655.62	55.3299
2654.94	51.6331
2654.26	29.5
2653.59	73.7383
2652.91	40.5497
2652.23	44.229
2651.55	51.5924
2650.87	55.2688
2650.19	55.2601
2649.52	44.2011
2648.84	44.1941
2648.16	40.5049
2647.48	51.5436
2646.8	51.5354
2646.12	55.2078
2645.44	62.559
2644.76	55.1904
2644.08	29.4302
2643.4	36.782
2642.72	44.1314
2642.04	22.0622
2641.36	51.4704
2640.68	73.5175
2640	29.4024
2639.32	18.3736
2638.64	22.0448
2637.96	36.7356
2637.28	66.1136
2636.6	33.0516
2635.92	51.4054
2635.24	51.3973
2634.56	29.3653
2633.88	58.7212
2633.19	51.373
2632.51	62.3716
2631.83	40.3517
2631.15	33.0098
2630.47	40.339
2629.79	47.6658
2629.1	29.3282
2628.42	54.9816
2627.74	40.3135
2627.06	32.9785
2626.38	18.3185
2625.69	69.5994
2625.01	29.3004
2624.33	73.2393
2623.65	73.2278
2622.96	47.5905
2622.28	58.5637
2621.6	29.2772
2620.91	73.1815
2620.23	62.1944
2619.55	62.1846
2618.86	73.1468
2618.18	58.5082
2617.5	0
2616.81	29.2448
2616.13	43.8603
2615.44	32.89
2614.76	25.5771
2614.07	65.7592
2613.39	29.2217
2612.71	47.4778
2612.02	29.2125
2611.34	62.0667
2610.65	40.1544
2609.97	25.5488
2609.28	40.1417
2608.6	54.73
2607.91	65.6657
2607.23	76.5978
2606.54	61.9979
2605.85	32.8172
2605.17	47.3952
2604.48	51.0329
2603.8	36.4463
2603.11	25.5084
2602.42	47.3652
2601.74	40.0719
2601.05	61.9195
2600.37	58.2679
2599.68	65.541
2598.99	36.4059
2598.31	43.6802
2597.62	50.9521
2596.93	58.2218
2596.24	65.4891
2595.56	76.3919
2594.87	47.2827
2594.18	61.8215
2593.49	76.3556
2592.81	72.7081
2592.12	54.5224
2591.43	61.7823
2590.74	39.9704
2590.06	47.2303
2589.37	39.9578
2588.68	36.3195
2587.99	83.5216
2587.3	50.8312
2586.61	58.0835
2585.92	36.2965
2585.24	43.5488
2584.55	61.6844
2583.86	14.5117
2583.17	76.1742
2582.48	25.3874
2581.79	65.2715
2581.1	25.3793
2580.41	43.5005
2579.72	68.8649
2579.03	39.8628
2578.34	54.3498
2577.65	43.4729
2576.96	68.8212
2576.27	47.0807
2575.58	43.4522
2574.89	32.584
2574.2	47.0583
2573.51	28.9544
2572.82	57.8996
2572.13	39.7996
2571.43	36.1757
2570.74	36.17
2570.05	18.0821
2569.36	65.0853
2568.67	39.7681
2567.98	61.45
2567.29	39.7554
2566.59	83.1118
2565.9	43.3558
2565.21	65.0233
2564.52	36.1183
2563.83	28.8901
2563.13	61.3817
2562.44	39.7113
2561.75	50.5336
2561.06	46.9166
2560.36	46.9091
2559.67	72.1564
2558.98	46.8942
2558.28	79.3468
2557.59	54.0915
2556.9	72.1106
2556.2	57.6793
2555.51	43.2526
2554.82	54.0571
2554.12	39.6356
2553.43	32.424
2552.73	57.6335
2552.04	75.6319
2551.35	36.0095
2550.65	39.6041
2549.96	46.7974
2549.26	43.1907
2548.57	79.1704
2547.87	39.5789
2547.18	46.7677
2546.48	61.148
2545.79	61.1383
2545.09	79.1075
2544.4	68.3093
2543.7	79.0823
2543.01	28.7526
2542.31	21.5611
2541.61	64.6729
2540.92	14.3695
2540.22	57.4687
2539.53	75.4157
2538.83	43.0878
2538.13	68.2115
2537.44	82.5587
2536.74	53.8341
2536.04	68.1789
2535.35	53.8169
2534.65	57.3956
2533.95	46.6265
2533.26	82.4799
2532.56	71.7102
2531.86	57.359
2531.16	43.0124
2530.47	43.0056
2529.77	57.3316
2529.07	57.3225
2528.37	68.0596
2527.68	64.4673
2526.98	53.7142
2526.28	46.5449
2525.58	64.4365
2524.88	53.6885
2524.18	42.944
2523.48	50.0933
2522.79	67.9729
2522.09	46.5004
2521.39	67.9513
2520.69	75.0921
2519.99	35.7524
2519.29	57.1948
2518.59	42.8892
2517.89	46.4559
2517.19	64.3134
2516.49	39.2963
2515.79	50.0056
2515.09	46.4263
2514.39	71.4137
2513.69	57.1219
2512.99	60.6823
2512.29	64.2416
2511.59	64.2314
2510.89	39.2462
2510.19	64.2109
2509.49	60.6339
2508.79	64.1904
2508.09	74.8769
2507.38	81.9949
2506.68	39.2087
2505.98	89.0965
2505.28	46.3228
2504.58	99.7562
2503.88	53.4323
2503.17	53.4238
2502.47	46.2932
2501.77	67.6485
2501.07	49.8383
2500.36	42.7117
2499.66	56.9399
2498.96	64.0472
2498.26	46.2489
2497.55	60.4697
2496.85	88.9118
2496.15	78.2299
2495.45	71.1067
2494.74	71.0954
2494.04	60.4214
2493.33	63.9654
2492.63	71.0613
2491.93	60.3925
2491.22	63.9347
2490.52	110.092
2489.82	42.6095
2489.11	28.4018
2488.41	39.0463
2487.7	46.1382
2487	67.422
2486.29	39.0276
2485.59	67.4005
2484.88	46.1087
2484.18	49.6476
2483.47	74.4595
2482.77	56.722
2482.06	46.0793
2481.36	63.7919
2480.65	85.0422
2479.95	77.9429
2479.24	53.1344
2478.54	53.1259
2477.83	35.4116
2477.12	74.3525
2476.42	77.8806
2475.71	70.7892
2475	77.8557
2474.3	49.5366
2473.59	38.9154
2472.88	49.5208
2472.18	31.8297
2471.47	49.5049
2470.76	70.71
2470.06	17.6747
2469.35	70.6874
2468.64	53.0071
2467.93	52.9986
2467.23	60.0554
2466.52	52.9816
2465.81	45.91
2465.1	45.9027
2464.39	95.3211
2463.69	28.2388
2462.98	77.6442
2462.27	84.6892
2461.56	31.7534
2460.85	67.0241
2460.14	56.4323
2459.43	59.9498
2458.73	31.733
2458.02	24.6773
2457.31	24.6733
2456.6	35.242
2455.89	49.3309
2455.18	77.5075
2454.47	31.7025
2453.76	66.9169
2453.05	49.2993
2452.34	84.4995
2451.63	14.081
2450.92	49.2756
2450.21	80.9398
2449.5	70.3711
2448.79	56.2879
2448.08	66.8311
2447.36	59.7867
2446.65	63.2934
2445.94	59.7675
2445.23	84.3642
2444.52	31.6315
2443.81	77.309
2443.1	56.2157
2442.39	38.6421
2441.67	66.7348
2440.96	59.7005
2440.25	38.6235
2439.54	77.2347
2438.83	66.692
2438.11	45.624
2437.4	70.1795
2436.69	84.2019
2435.98	28.0628
2435.26	70.1458
2434.55	70.1345
2433.84	49.0863
2433.12	84.1344
2432.41	59.5856
2431.7	87.6119
2430.98	66.5744
2430.27	84.0804
2429.56	45.5363
2428.84	59.5378
2428.13	73.5349
2427.41	49.0154
2426.7	35.0054
2425.99	66.4996
2425.27	69.9883
2424.56	69.9771
2423.84	87.4573
2423.13	59.4614
2422.41	41.966
2421.7	38.4627
2420.98	69.9209
2420.27	90.8826
2419.55	52.4238
2418.84	55.9098
2418.12	83.8512
2417.41	38.4256
2416.69	69.8535
2415.97	76.8265
2415.26	80.3058
2414.54	69.8199
2413.83	55.8469
2413.11	66.3076
2412.39	76.7648
2411.68	76.7525
2410.96	80.2283
2410.24	41.8515
2409.53	55.7931
2408.81	76.7031
2408.09	52.2892
2407.37	73.1931
2406.66	73.1813
2405.94	48.7797
2405.22	48.7719
2404.5	69.6629
2403.79	87.0646
2403.07	76.6045
2402.35	100.962
2401.63	90.5035
2400.91	80.0479
2400.19	93.9542
2399.48	48.7091
2398.76	76.5306
2398.04	66.084
2397.32	76.506
2396.6	86.9246
2395.88	52.1464
2395.16	79.9449
2394.44	72.9814
2393.72	76.4444
2393	55.587
2392.28	90.3143
2391.56	45.1499
2390.84	41.6701
2390.12	72.911
2389.4	59.0137
2388.68	55.5333
2387.96	72.8757
2387.24	55.5154
2386.52	65.914
2385.8	79.7777
2385.08	72.8288
2384.36	69.3496
2383.64	52.0038
2382.92	62.3945
2382.2	79.7135
2381.48	79.7007
2380.75	65.8291
2380.03	86.6032
2379.31	69.2714
2378.59	62.3342
2377.87	86.5614
2377.14	69.2379
2376.42	100.379
2375.7	62.2941
2374.98	76.1249
2374.25	79.5723
2373.53	65.723
2372.81	65.7124
2372.09	55.3279
2371.36	96.8082
2370.64	86.4219
2369.92	86.408
2369.19	62.2037
2368.47	48.3729
2367.75	62.1836
2367.02	65.6277
2366.3	44.8959
2365.57	86.3244
2364.85	86.3105
2364.13	65.5854
2363.4	96.6365
2362.68	89.7194
2361.95	58.6532
2361.23	79.3416
2360.5	86.2269
2359.78	117.25
2359.05	72.4072
2358.33	103.422
2357.6	72.3839
2356.88	51.6944
2356.15	68.9148
2355.43	75.794
2354.7	58.5586
2353.97	55.1051
2353.25	58.5397
2352.52	79.188
2351.8	37.8664
2351.07	51.6277
2350.34	58.5019
2349.62	58.4925
2348.89	86.0044
2348.16	75.6717
2347.44	55.0251
2346.71	79.0857
2345.98	92.8248
2345.25	99.6846
2344.53	51.5527
2343.8	85.9072
2343.07	79.0219
2342.34	75.5739
2341.62	92.7348
2340.89	96.1539
2340.16	68.6702
2339.43	92.6898
2338.7	68.648
2337.97	102.955
2337.25	72.0571
2336.52	75.4762
2335.79	54.8829
2335.06	51.4444
2334.33	72.0105
2333.6	68.5704
2332.87	99.411
2332.14	71.9756
2331.41	82.2445
2330.68	61.6734
2329.95	58.2377
2329.22	68.5038
2328.49	78.7667
2327.76	85.6021
2327.03	71.8941
2326.3	71.8825
2325.57	78.7157
2324.84	82.1248
2324.11	71.8476
2323.38	44.4699
2322.65	82.085
2321.92	102.59
2321.19	99.1539
2320.46	68.3709
2319.72	71.7778
2318.99	51.2616
2318.26	68.3377
2317.53	51.245
2316.8	58.0682
2316.07	68.3045
2315.33	95.6108
2314.6	40.9694
2313.87	51.2035
2313.14	109.216
2312.4	81.8991
2311.67	47.7667
2310.94	81.8725
2310.2	88.6809
2309.47	64.7947
2308.74	88.6521
2308.01	75.0012
2307.27	78.3976
2306.54	85.201
2305.8	61.3348
2305.07	91.9872
2304.34	64.7213
2303.6	88.5516
2302.87	61.295
2302.13	64.6898
2301.4	95.3169
2300.67	95.3014
2299.93	95.286
2299.2	57.8428
2298.46	78.2452
2297.73	78.2325
2296.99	88.4224
2296.26	81.6075
2295.52	57.7959
2294.79	84.9802
2294.05	64.5745
2293.31	88.3507
2292.58	71.3486
2291.84	88.3221
2291.11	78.1184
2290.37	67.918
2289.63	57.7209
2288.9	78.0803
2288.16	57.7022
2287.42	84.8424
2286.69	81.4355
2285.95	74.6371
2285.21	61.0568
2284.48	61.0469
2283.74	81.3826
2283	108.493
2282.26	94.9155
2281.53	64.3965
2280.79	105.051
2280.05	91.4811
2279.31	77.9157
2278.57	50.8063
2277.84	54.1846
2277.1	74.4917
2276.36	64.3233
2275.62	77.8524
2274.88	87.9928
2274.14	77.8271
2273.4	74.4312
2272.67	71.0365
2271.93	81.1713
2271.19	50.7238
2270.45	64.2397
2269.71	40.5659
2268.97	74.3587
2268.23	98.0023
2267.49	77.7133
2266.75	70.9441
2266.01	77.6881
2265.27	87.807
2264.53	97.9227
2263.79	74.2741
2263.05	101.266
2262.31	84.3749
2261.57	77.6123
2260.82	74.2258
2260.08	77.5871
2259.34	50.592
2258.6	74.1896
2257.86	80.9209
2257.12	114.619
2256.38	70.7827
2255.63	101.102
2254.89	74.1292
2254.15	60.6413
2253.41	87.5787
2252.67	77.4609
2251.92	87.5502
2251.18	90.9027
2250.44	74.0568
2249.7	107.702
2248.95	67.3025
2248.21	50.4686
2247.47	57.1885
2246.72	63.9061
2245.98	94.1621
2245.24	100.872
2244.49	90.7696
2243.75	73.9484
2243	77.2971
2242.26	94.0855
2241.52	104.149
2240.77	100.773
2240.03	70.5296
2239.28	110.814
2238.54	110.796
2237.79	77.209
2237.05	93.9782
2236.3	90.6071
2235.56	90.5923
2234.81	90.5775
2234.07	90.5628
2233.32	107.316
2232.58	83.8271
2231.83	90.5185
2231.09	93.8557
2230.34	67.0289
2229.59	80.4215
2228.85	97.1602
2228.1	83.7451
2227.35	87.0807
2226.61	77.0204
2225.86	63.6151
2225.11	93.7333
2224.37	100.412
2223.62	100.396
2222.87	83.6495
2222.13	63.5633
2221.38	97.0018
2220.63	80.2642
2219.88	90.2825
2219.14	76.8948
2218.39	100.281
2217.64	73.5275
2216.89	80.1988
2216.14	60.1393
2215.4	93.5347
2214.65	80.1595
2213.9	63.4492
2213.15	60.1
2212.4	90.1353
2211.65	93.4583
2210.9	113.467
2210.15	106.775
2209.4	106.757
2208.65	86.7261
2207.9	80.0418
2207.16	93.3668
2206.41	120.023
2205.66	110.003
2204.91	83.3224
2204.15	69.9793
2203.4	89.9587
2202.65	59.9627
2201.9	66.6143
2201.15	76.594
2200.4	89.8999
2199.65	59.9235
2198.9	79.8849
2198.15	56.5759
2197.4	89.8412
2196.65	96.4803
2195.89	79.8327
2195.14	79.8197
2194.39	109.734
2193.64	86.443
2192.89	86.4289
2192.13	76.4438
2191.38	79.7544
2190.63	73.0963
2189.88	106.304
2189.12	73.0723
2188.37	86.3441
2187.62	69.7281
2186.87	63.077
2186.11	96.2596
2185.36	59.7376
2184.61	92.9099
2183.85	109.483
2183.1	72.9767
2182.35	109.447
2181.59	102.797
2180.84	109.411
2180.08	86.1888
2179.33	62.9738
2178.57	62.9635
2177.82	79.5198
2177.07	96.0707
2176.31	92.7427
2175.56	82.7924
2174.8	82.7789
2174.05	89.3866
2173.29	92.682
2172.53	76.1192
2171.78	76.1067
2171.02	72.7858
2170.27	76.0818
2169.51	85.9914
2168.76	85.9773
2168	102.495
2167.24	66.1147
2166.49	79.3246
2165.73	72.7023
2164.97	85.9069
2164.22	89.1964
2163.46	66.0605
2162.7	89.1671
2161.95	72.6428
2161.19	95.7407
2160.43	75.9198
2159.67	89.1086
2158.92	98.9934
2158.16	72.5832
2157.4	95.6622
2156.64	89.0502
2155.88	102.226
2155.13	69.2386
2154.37	92.3029
2153.61	88.9918
2152.85	79.0908
2152.09	65.8982
2151.33	79.0649
2150.57	102.109
2149.82	108.679
2149.06	92.197
2148.3	79.013
2147.54	79
2146.78	65.8226
2146.02	108.589
2145.26	85.5412
2144.5	82.2377
2143.74	121.692
2142.98	88.7875
2142.22	115.076
2141.46	78.8963
2140.7	101.891
2139.94	111.733
2139.17	75.5718
2138.41	82.1297
2137.65	82.1162
2136.89	101.807
2136.13	82.0893
2135.37	68.9436
2134.61	75.4973
2133.84	108.304
2133.08	111.568
2132.32	75.4601
2131.56	95.1297
2130.8	108.233
2130.03	68.8644
2129.27	85.2467
2128.51	95.0672
2127.75	88.4963
2126.98	114.699
2126.22	81.9141
2125.46	72.0725
2124.69	91.7136
2123.93	108.073
2123.17	104.781
2122.4	114.585
2121.64	111.293
2120.88	85.0926
2120.11	111.257
2119.35	71.9778
2118.58	94.8642
2117.82	94.8486
2117.05	88.2927
2116.29	81.7391
2115.53	94.8017
2114.76	84.9807
2114	71.8949
2113.23	98.0224
2112.47	78.405
2111.7	101.256
2110.93	97.974
2110.17	78.3663
2109.4	91.4123
2108.64	81.6047
2107.87	88.1185
2107.1	97.8934
2106.34	104.402
2105.57	84.813
2104.81	78.276
2104.04	94.5679
2103.27	117.375
2102.51	81.4972
2101.74	84.7432
2100.97	107.541
2100.2	58.649
2099.44	117.279
2098.67	91.2017
2097.9	87.93
2097.13	97.6839
2096.37	94.4123
2095.6	107.417
2094.83	117.163
2094.06	74.8417
2093.29	87.8431
2092.52	84.5757
2091.76	68.2999
2090.99	74.7923
2090.22	78.0313
2089.45	87.7708
2088.68	87.7563
2087.91	100.741
2087.14	84.4782
2086.37	81.2156
2085.6	81.2022
2084.83	90.9315
2084.06	55.1993
2083.29	77.9156
2082.52	84.3946
2081.75	74.6445
2080.98	116.816
2080.21	81.1085
2079.44	90.8265
2078.67	90.8116
2077.9	77.8256
2077.13	94.0238
2076.36	97.2499
2075.58	90.7516
2074.81	97.2178
2074.04	81.0015
2073.27	87.4672
2072.5	93.9307
2071.73	80.9614
2070.95	84.1859
2070.18	126.258
2069.41	84.1581
2068.64	87.3805
2067.86	71.1872
2067.09	80.8812
2066.32	74.3984
2065.55	103.494
2064.77	103.477
2064	90.5271
2063.23	119.605
2062.45	96.9613
2061.68	87.2507
2060.9	74.3124
2060.13	103.374
2059.36	113.047
2058.58	113.028
2057.81	87.1786
2057.03	125.904
2056.26	87.1498
2055.48	90.3627
2054.71	67.7608
2053.93	100.011
2053.16	87.0922
2052.38	87.0778
2051.61	99.9617
2050.83	99.9452
2050.06	70.9171
2049.28	99.9121
2048.51	96.6731
2047.73	80.5476
2046.95	96.6412
2046.18	106.288
2045.4	103.05
2044.63	106.253
2043.85	77.2618
2043.07	109.436
2042.3	96.5453
2041.52	96.5293
2040.74	112.599
2039.96	93.2807
2039.19	48.2407
2038.41	99.6809
2037.63	80.3745
2036.85	86.7901
2036.08	106.059
2035.3	99.6149
2034.52	106.024
2033.74	109.219
2032.96	70.6593
2032.19	134.873
2031.41	96.3217
2030.63	99.516
2029.85	80.2415
2029.07	83.4373
2028.29	86.6321
2027.51	109.074
2026.73	102.641
2025.95	83.3821
2025.17	96.1941
2024.39	112.208
2023.61	102.573
2022.83	83.3268
2022.05	108.948
2021.27	102.522
2020.49	112.115
2019.71	108.894
2018.93	92.8644
2018.15	73.6389
2017.37	73.6267
2016.59	83.2164
2015.81	76.8024
2015.03	99.1866
2014.24	95.9711
2013.46	108.749
2012.68	118.325
2011.9	108.713
2011.12	127.877
2010.33	89.4988
2009.55	102.267
2008.77	79.8831
2007.99	118.207
2007.2	79.8566
2006.42	108.587
2005.64	70.2505
2004.86	111.744
2004.07	124.494
2003.29	82.982
2002.51	95.7325
2001.72	89.3355
2000.94	102.081
2000.15	82.9269
1999.37	105.236
1998.59	105.218
1997.8	95.6372
1997.02	95.6213
1996.23	114.727
1995.45	79.658
1994.66	105.131
1993.88	111.484
1993.09	124.204
1992.31	63.684
1991.52	92.3265
1990.74	101.861
1989.95	105.026
1989.17	92.2805
1988.38	111.354
1987.6	149.508
1986.81	98.5955
1986.02	98.5791
1985.24	69.9477
1984.45	92.1885
1983.66	111.243
1982.88	82.6243
1982.09	66.7239
1981.3	133.426
1980.52	120.698
1979.73	111.151
1978.94	133.359
1978.15	136.512
1977.37	111.096
1976.58	130.119
1975.79	79.3276
1975	126.903
1974.22	120.538
1973.43	104.66
1972.64	101.472
1971.85	155.353
1971.06	117.288
1970.27	139.454
1969.48	91.8976
1968.69	101.387
1967.91	110.874
1967.12	95.019
1966.33	85.5029
1965.54	107.652
1964.75	113.966
1963.96	88.6254
1963.17	107.599
1962.38	94.9241
1961.59	98.0719
1960.8	104.382
1960.01	91.7141
1959.22	126.481
1958.43	107.491
1957.63	97.9903
1956.84	129.578
1956.05	126.397
1955.26	142.173
1954.47	110.56
1953.68	91.592
1952.89	104.208
1952.09	110.505
1951.3	110.487
1950.51	78.906
1949.72	97.8271
1948.93	154.604
1948.13	116.722
1947.34	85.1616
1946.55	119.837
1945.76	116.664
1944.96	116.645
1944.17	116.625
1943.38	100.848
1942.58	100.831
1941.79	126.018
1941	91.348
1940.2	122.827
1939.41	122.806
1938.61	113.341
1937.82	100.73
1937.02	132.187
1936.23	119.578
1935.44	110.119
1934.64	141.558
1933.85	122.663
1933.05	138.366
1932.26	103.757
1931.46	122.601
1930.67	103.722
1929.87	113.133
1929.07	125.682
1928.28	116.237
1927.48	91.0891
1926.69	116.198
1925.89	109.898
1925.09	116.159
1924.3	131.834
1923.5	138.089
1922.7	125.514
1921.91	122.356
1921.11	78.4202
1920.31	87.816
1919.52	97.2086
1918.72	119.139
1917.92	147.332
1917.12	106.562
1916.33	122.213
1915.53	112.793
1914.73	97.1112
1913.93	134.68
1913.13	165.973
1912.33	109.587
1911.54	128.352
1910.74	115.81
1909.94	137.697
1909.14	118.9
1908.34	109.495
1907.54	121.988
1906.74	140.732
1905.94	131.328
1905.14	103.169
1904.34	118.781
1903.54	118.761
1902.74	121.866
1901.94	96.8517
1901.14	131.196
1900.34	143.667
1899.54	99.9257
1898.74	137.375
1897.94	131.109
1897.14	134.208
1896.34	146.668
1895.54	124.803
1894.73	146.619
1893.93	155.951
1893.13	155.925
1892.33	127.837
1891.53	168.343
1890.73	118.443
1889.92	130.889
1889.12	124.636
1888.32	140.192
1887.52	146.398
1886.71	137.03
1885.91	168.145
1885.11	127.645
1884.3	118.285
1883.5	152.5
1882.7	161.809
1881.89	133.781
1881.09	127.538
1880.29	121.296
1879.48	149.262
1878.68	139.91
1877.87	139.886
1877.07	133.647
1876.27	142.947
1875.46	152.244
1874.66	146.006
1873.85	114.921
1873.05	161.484
1872.24	145.932
1871.44	139.699
1870.63	145.883
1869.82	155.169
1869.02	148.937
1868.21	120.991
1867.41	167.498
1866.6	127.153
1865.79	124.031
1864.99	130.211
1864.18	117.79
1863.38	139.465
1862.57	154.935
1861.76	148.712
1860.95	130.102
1860.15	151.76
1859.34	123.865
1858.53	164.093
1857.72	142.397
1856.92	151.658
1856.11	170.2
1855.3	133.043
1854.49	163.955
1853.68	114.44
1852.88	154.623
1852.07	136.045
1851.26	148.388
1850.45	126.727
1849.64	139.067
1848.83	120.505
1848.02	126.663
1847.21	126.642
1846.4	148.239
1845.59	145.126
1844.78	132.753
1843.97	157.424
1843.16	157.398
1842.35	145.028
1841.54	175.856
1840.73	129.556
1839.92	141.871
1839.11	169.6
1838.3	135.657
1837.49	126.387
1836.68	144.858
1835.87	154.078
1835.06	141.728
1834.25	172.509
1833.43	80.0802
1832.62	129.339
1831.81	144.712
1831	132.374
1830.19	147.741
1829.37	144.639
1828.56	209.229
1827.75	138.437
1826.94	156.869
1826.12	147.617
1825.31	138.367
1824.5	135.27
1823.68	178.28
1822.87	144.444
1822.06	156.711
1821.24	147.468
1820.43	144.371
1819.61	132.062
1818.8	156.605
1817.99	147.368
1817.17	150.413
1816.36	190.287
1815.54	177.98
1814.73	128.86
1813.91	138.042
1813.1	174.823
1812.28	168.661
1811.47	137.972
1810.65	156.342
1809.84	168.575
1809.02	122.58
1808.2	131.751
1807.39	159.3
1806.57	143.958
1805.75	165.371
1804.94	122.476
1804.12	143.885
1803.3	183.652
1802.49	137.716
1801.67	174.411
1800.85	125.432
1800.04	168.235
1799.22	128.448
1798.4	137.6
1797.58	143.691
1796.77	152.837
1795.95	177.261
1795.13	161.953
1794.31	137.484
1793.49	149.68
1792.67	152.708
1791.86	152.683
1791.04	170.976
1790.22	158.736
1789.4	210.595
1788.58	161.734
1787.76	183.065
1786.94	170.832
1786.12	161.653
1785.3	170.774
1784.48	158.549
1783.66	137.183
1782.84	134.111
1782.02	188.943
1781.2	170.63
1780.38	167.554
1779.56	152.296
1778.74	179.679
1777.92	143.11
1777.1	133.953
1776.27	149.15
1775.45	155.211
1774.63	194.742
1773.81	146.032
1772.99	167.3
1772.17	130.776
1771.34	188.529
1770.52	145.933
1769.7	142.869
1768.88	164.119
1768.05	145.859
1767.23	151.911
1766.41	157.961
1765.58	173.12
1764.76	167.017
1763.94	185.206
1763.11	148.747
1762.29	166.932
1761.47	176.008
1760.64	169.91
1759.82	175.949
1758.99	181.985
1758.17	178.922
1757.35	200.116
1756.52	187.956
1755.7	154.583
1754.87	145.465
1754.05	157.56
1753.22	193.887
1752.4	160.536
1751.57	178.679
1750.74	169.565
1749.92	193.756
1749.09	163.454
1748.27	154.347
1747.44	208.787
1746.61	187.574
1745.79	184.518
1744.96	178.438
1744.13	178.407
1743.31	166.284
1742.48	202.53
1741.65	181.339
1740.83	190.374
1740	151.065
1739.17	141.977
1738.34	172.155
1737.51	166.087
1736.69	184.174
1735.86	150.937
1735.03	205.239
1734.2	172.01
1733.37	190.084
1732.54	181.001
1731.72	193.035
1730.89	229.191
1730.06	159.803
1729.23	201.981
1728.4	168.791
1727.57	162.735
1726.74	147.642
1725.91	177.743
1725.08	171.689
1724.25	204.787
1723.42	189.697
1722.59	192.675
1721.76	204.683
1720.93	177.562
1720.1	171.514
1719.27	177.502
1718.43	165.44
1717.6	159.397
1716.77	171.398
1715.94	192.414
1715.11	168.334
1714.28	186.338
1713.45	207.341
1712.61	165.244
1711.78	213.278
1710.95	183.208
1710.12	198.191
1709.28	207.165
1708.45	210.131
1707.62	213.097
1706.78	159.045
1705.95	219.025
1705.12	179.99
1704.28	203.954
1703.45	185.927
1702.62	188.893
1701.78	191.859
1700.95	251.772
1700.11	242.739
1699.28	176.78
1698.45	182.742
1697.61	173.725
1696.78	197.653
1695.94	236.545
1695.11	200.58
1694.27	170.613
1693.44	176.57
1692.6	164.571
1691.76	176.51
1690.93	206.391
1690.09	191.403
1689.26	215.292
1688.42	161.441
1687.58	200.273
1686.75	194.261
1685.91	209.169
1685.07	212.121
1684.24	176.24
1683.4	176.21
1682.56	188.124
1681.73	188.092
1680.89	158.209
1680.05	208.92
1679.21	220.821
1678.37	196.915
1677.54	214.779
1676.7	199.83
1675.86	193.832
1675.02	187.836
1674.18	208.671
1673.34	190.753
1672.51	217.54
1671.67	190.688
1670.83	172.781
1669.99	187.644
1669.15	232.282
1668.31	229.265
1667.47	250.064
1666.63	214.304
1665.79	241.051
1664.95	214.231
1664.11	214.195
1663.27	220.107
1662.43	255.757
1661.59	199.218
1660.75	228.913
1659.9	199.15
1659.06	228.835
1658.22	231.768
1657.38	213.903
1656.54	222.777
1655.7	222.739
1654.85	207.855
1654.01	172.193
1653.17	198.879
1652.33	255.234
1651.49	243.321
1650.64	219.545
1649.8	192.81
1648.96	177.948
1648.11	195.71
1647.27	252.008
1646.43	210.465
1645.58	222.284
1644.74	228.172
1643.9	239.985
1643.05	228.095
1642.21	260.635
1641.36	242.823
1640.52	227.978
1639.68	183.535
1638.83	189.423
1637.99	174.595
1637.14	204.152
1636.3	195.243
1635.45	201.125
1634.61	204.048
1633.76	221.753
1632.91	239.452
1632.07	203.943
1631.22	174.356
1630.38	212.737
1629.53	206.793
1628.68	212.665
1627.84	191.956
1626.99	212.592
1626.14	168.273
1625.3	221.374
1624.45	250.848
1623.6	259.657
1622.75	244.862
1621.91	238.921
1621.06	227.083
1620.21	206.404
1619.36	238.798
1618.52	221.072
1617.67	232.822
1616.82	223.943
1615.97	179.713
1615.12	212.084
1614.27	200.267
1613.42	209.066
1612.57	244.36
1611.72	232.544
1610.88	217.788
1610.03	238.349
1609.18	220.656
1608.33	255.917
1607.48	232.345
1606.63	223.483
1605.78	229.325
1604.93	208.709
1604.07	199.856
1603.22	223.33
1602.37	188.035
1601.52	220.316
1600.67	279.019
1599.82	226.114
1598.97	231.947
1598.12	237.779
1597.26	199.582
1596.41	264.108
1595.56	199.514
1594.71	208.28
1593.86	211.178
1593	237.534
1592.15	237.493
1591.3	249.179
1590.45	240.343
1589.59	240.302
1588.74	196.311
1587.89	228.501
1587.03	207.959
1586.18	222.566
1585.32	240.096
1584.47	228.345
1583.62	201.963
1582.76	228.266
1581.91	216.523
1581.05	201.859
1580.2	219.374
1579.34	193.016
1578.49	245.615
1577.63	263.113
1576.78	245.53
1575.92	225.031
1575.07	239.602
1574.21	227.875
1573.36	236.599
1572.5	242.399
1571.64	262.797
1570.79	256.913
1569.93	207.247
1569.07	253.907
1568.22	227.601
1567.36	207.14
1566.5	250.859
1565.65	218.735
1564.79	233.277
1563.93	233.237
1563.07	262.347
1562.22	271.045
1561.36	270.998
1560.5	262.211
1559.64	247.602
1558.78	227.172
1557.92	253.34
1557.07	264.943
1556.21	247.431
1555.35	241.568
1554.49	250.256
1553.63	256.032
1552.77	264.715
1551.91	244.31
1551.05	241.36
1550.19	282.023
1549.33	255.812
1548.47	241.236
1547.61	316.749
1546.75	278.924
1545.89	281.781
1545.03	273.019
1544.17	304.916
1543.31	316.477
1542.45	328.034
1541.58	342.49
1540.72	316.314
1539.86	333.668
1539	374.224
1538.14	368.359
1537.28	371.195
1536.41	394.327
1535.55	443.542
1534.69	399.988
1533.83	489.756
1532.96	501.262
1532.1	501.176
1531.24	573.501
1530.37	570.506
1529.51	460.38
1528.65	442.931
1527.78	341.548
1526.92	364.641
1526.05	298.028
1525.19	295.084
1524.33	315.28
1523.46	271.846
1522.6	286.257
1521.73	271.753
1520.87	248.582
1520	268.769
1519.14	265.833
1518.27	268.676
1517.41	257.076
1516.54	225.264
1515.67	239.663
1514.81	268.491
1513.94	288.65
1513.08	251.083
1512.21	256.81
1511.34	282.731
1510.48	259.606
1509.61	291.286
1508.74	294.119
1507.88	265.238
1507.01	279.605
1506.14	308.377
1505.27	279.508
1504.41	290.984
1503.54	273.651
1502.67	285.124
1501.8	282.195
1500.93	253.356
1500.06	244.677
1499.2	204.342
1498.33	267.613
1497.46	281.952
1496.59	247.384
1495.72	270.35
1494.85	273.179
1493.98	244.381
1493.11	293.207
1492.24	229.926
1491.37	218.392
1490.5	284.435
1489.63	247.043
1488.76	290.081
1487.89	252.7
1487.02	226.817
1486.15	295.672
1485.28	272.66
1484.41	324.266
1483.54	289.781
1482.66	283.993
1481.79	289.681
1480.92	275.292
1480.05	278.112
1479.18	275.197
1478.3	278.016
1477.43	232.117
1476.56	292.245
1475.69	295.06
1474.81	283.552
1473.94	292.094
1473.07	309.222
1472.19	254.778
1471.32	294.804
1470.45	306.2
1469.57	271.813
1468.7	308.955
1467.83	288.88
1466.95	274.532
1466.08	328.809
1465.2	308.741
1464.33	294.397
1463.45	271.484
1462.58	317.153
1461.7	319.954
1460.83	285.624
1459.95	328.411
1459.08	294.091
1458.2	285.476
1457.32	331.095
1456.45	379.551
1455.57	388.045
1454.7	330.923
1453.82	376.502
1452.94	399.251
1452.07	362.115
1451.19	336.395
1450.31	302.133
1449.43	319.179
1448.56	321.973
1447.68	333.313
1446.8	321.862
1445.92	316.11
1445.05	310.361
1444.17	353.01
1443.29	313.1
1442.41	327.275
1441.53	338.599
1440.65	335.696
1439.77	315.727
1438.9	358.331
1438.02	307.087
1437.14	358.206
1436.26	335.405
1435.38	332.505
1434.5	304.033
1433.62	267.048
1432.74	303.927
1431.86	315.234
1430.98	323.698
1430.1	295.252
1429.22	286.686
1428.33	286.636
1427.45	286.586
1426.57	309.232
1425.69	241.103
1424.81	283.601
1423.93	266.539
1423.05	280.667
1422.16	269.281
1421.28	320.246
1420.4	289.022
1419.52	300.304
1418.63	291.754
1417.75	288.871
1416.87	322.8
1415.99	268.953
1415.1	271.737
1414.22	314.142
1413.34	297.109
1412.45	291.399
1411.57	288.52
1410.68	279.986
1409.8	274.282
1408.92	313.814
1408.03	279.84
1407.15	276.965
1406.26	299.522
1405.38	288.169
1404.49	288.119
1403.61	285.245
1402.72	290.843
1401.84	299.262
1400.95	256.869
1400.06	301.98
1399.18	287.819
1398.29	313.16
1397.41	315.926
1396.52	279.208
1395.63	304.537
1394.75	287.568
1393.86	276.243
1392.97	324.106
1392.09	304.325
1391.2	250.743
1390.31	281.685
1389.42	298.534
1388.54	278.771
1387.65	301.245
1386.76	320.897
1385.87	309.583
1384.98	295.46
1384.09	286.968
1383.21	312.235
1382.32	306.555
1381.43	300.878
1380.54	300.826
1379.65	309.206
1378.76	359.741
1377.87	345.628
1376.98	294.997
1376.09	328.654
1375.2	337.022
1374.31	320.115
1373.42	283.561
1372.53	300.354
1371.64	350.82
1370.75	331.116
1369.86	378.753
1368.96	305.755
1368.07	319.725
1367.18	389.772
1366.29	280.362
1365.4	316.754
1364.51	341.923
1363.61	322.248
1362.72	361.415
1361.83	288.522
1360.94	338.884
1360.04	319.223
1359.15	321.967
1358.26	324.71
1357.36	352.641
1356.47	355.378
1355.58	341.327
1354.68	332.875
1353.79	369.176
1352.9	369.111
1352	335.497
1351.11	304.69
1350.21	405.251
1349.32	357.676
1348.42	405.109
1347.53	410.625
1346.63	460.825
1345.74	457.952
1344.84	508.127
1343.95	491.289
1343.05	513.531
1342.15	499.489
1341.26	457.553
1340.36	465.841
1339.47	423.925
1338.57	390.389
1337.67	381.957
1336.78	373.527
1335.88	401.332
1334.98	376.183
1334.08	390.048
1333.19	342.625
1332.29	353.705
1331.39	359.213
1330.49	331.309
1329.6	339.602
1328.7	303.362
1327.8	361.744
1326.9	358.899
1326	325.456
1325.1	319.837
1324.2	330.904
1323.3	347.527
1322.4	316.889
1321.51	350.185
1320.61	350.123
1319.71	352.84
1318.81	372.223
1317.91	302.725
1317.01	349.878
1316.1	360.922
1315.2	358.083
1314.3	349.695
1313.4	332.984
1312.5	368.993
1311.6	335.641
1310.7	368.864
1309.8	354.934
1308.9	374.279
1307.99	335.406
1307.09	340.89
1306.19	390.708
1305.29	321.378
1304.38	398.882
1303.48	357.269
1302.58	326.747
1301.68	334.995
1300.77	351.545
1299.87	365.321
1298.97	351.422
1298.06	384.559
1297.16	348.532
1296.25	370.596
1295.35	351.175
1294.45	403.643
1293.54	370.402
1292.64	304.008
1291.73	328.823
1290.83	367.444
1289.92	350.806
1289.02	312.08
1288.11	325.831
1287.21	336.817
1286.3	342.279
1285.39	275.983
1284.49	366.993
1283.58	331.063
1282.68	300.663
1281.77	319.916
1280.86	314.345
1279.96	311.533
1279.05	303.209
1278.14	305.911
1277.23	281.058
1276.33	316.824
1275.42	297.487
1274.51	289.172
1273.6	313.903
1272.7	250.528
1271.79	261.494
1270.88	291.721
1269.97	264.154
1269.06	294.37
1268.15	255.809
1267.24	272.265
1266.33	283.216
1265.43	277.668
1264.52	274.87
1263.61	247.34
1262.7	258.287
1261.79	263.737
1260.88	238.969
1259.97	244.42
1259.06	288.31
1258.14	255.315
1257.23	271.739
1256.32	279.925
1255.41	293.595
1254.5	230.445
1253.59	244.119
1252.68	260.531
1251.77	263.227
1250.85	257.698
1249.94	263.134
1249.03	274.05
1248.12	221.941
1247.2	230.121
1246.29	249.254
1245.38	240.994
1244.47	251.904
1243.55	257.335
1242.64	273.713
1241.73	243.561
1240.81	243.518
1239.9	276.304
1238.98	235.227
1238.07	254.329
1237.16	235.144
1236.24	248.772
1235.33	256.928
1234.41	237.753
1233.5	221.317
1232.58	210.351
1231.67	259.478
1230.75	232.124
1229.84	259.386
1228.92	229.312
1228	264.754
1227.09	278.352
1226.17	272.846
1225.25	253.702
1224.34	201.835
1223.42	226.342
1222.5	245.388
1221.59	275.332
1220.67	272.558
1219.75	280.685
1218.84	296.983
1217.92	275.137
1217	280.536
1216.08	269.594
1215.16	264.101
1214.25	283.11
1213.33	269.451
1212.41	269.404
1211.49	269.356
1210.57	280.19
1209.65	296.459
1208.73	263.775
1207.81	271.885
1206.89	271.837
1205.97	239.174
1205.05	260.872
1204.13	249.958
1203.21	266.212
1202.29	312.337
1201.37	263.403
1200.45	241.636
1199.53	238.879
1198.61	287.69
1197.69	246.935
1196.77	246.892
1195.84	273.974
1194.92	246.805
1194	260.319
1193.08	279.251
1192.16	241.252
1191.23	243.92
1190.31	270.974
1189.39	268.217
1188.46	287.131
1187.54	273.539
1186.62	240.997
1185.69	257.198
1184.77	246.325
1183.85	235.456
1182.92	230.003
1182	229.962
1181.08	243.446
1180.15	200.131
1179.23	210.912
1178.3	208.171
1177.38	262.195
1176.45	254.041
1175.53	226.975
1174.6	253.951
1173.68	267.412
1172.75	216.052
1171.82	199.813
1170.9	240.273
1169.97	202.441
1169.05	218.598
1168.12	226.654
1167.19	264.383
1166.27	234.666
1165.34	199.565
1164.41	229.19
1163.48	245.325
1162.56	256.063
1161.63	220.983
1160.7	245.194
1159.77	242.457
1158.84	242.414
1157.92	245.064
1156.99	285.409
1156.06	228.825
1155.13	253.008
1154.2	215.288
1153.27	258.3
1152.34	263.635
1151.41	239.381
1150.48	228.582
1149.55	239.296
1148.62	233.877
1147.69	298.342
1146.76	284.853
1145.83	298.236
1144.9	308.929
1143.97	290.073
1143.04	279.28
1142.11	233.587
1141.18	295.287
1140.25	220.084
1139.32	273.715
1138.38	265.617
1137.45	236.062
1136.52	222.61
1135.59	265.476
1134.65	214.488
1133.72	241.256
1132.79	262.654
1131.86	262.608
1130.92	257.203
1129.99	275.908
1129.06	270.503
1128.12	267.777
1127.19	254.343
1126.26	243.59
1125.32	246.223
1124.39	259.559
1123.45	254.162
1122.52	259.467
1121.58	243.374
1120.65	216.591
1119.71	243.288
1118.78	195.13
1117.84	227.166
1116.91	243.158
1115.97	219.07
1115.03	232.387
1114.1	237.687
1113.16	229.634
1112.23	245.612
1111.29	234.891
1110.35	253.531
1109.42	253.485
1108.48	253.44
1107.54	229.389
1106.6	269.351
1105.67	223.975
1104.73	247.928
1103.79	218.565
1102.85	213.196
1101.91	183.849
1100.98	191.808
1100.04	258.362
1099.1	210.381
1098.16	239.632
1097.22	247.576
1096.28	180.991
1095.34	260.793
1094.4	223.497
1093.46	228.778
1092.52	239.376
1091.58	210.082
1090.64	247.267
1089.7	220.64
1088.76	231.232
1087.82	209.932
1086.88	239.121
1085.94	223.139
1085	225.756
1084.06	265.547
1083.11	254.88
1082.17	209.708
1081.23	228.249
1080.29	206.979
1079.35	230.821
1078.4	180.379
1077.46	225.434
1076.52	220.09
1075.57	243.912
1074.63	227.964
1073.69	251.776
1072.74	206.684
1071.8	214.596
1070.86	203.962
1069.91	225.113
1068.97	198.593
1068.02	230.327
1067.08	227.639
1066.14	251.417
1065.19	254.018
1064.25	235.454
1063.3	240.702
1062.36	235.37
1061.41	206.242
1060.46	208.849
1059.52	237.887
1058.57	198.204
1057.63	211.38
1056.68	224.551
1055.73	198.098
1054.79	221.83
1053.84	234.992
1052.89	195.352
1051.95	253.384
1051	219.033
1050.05	218.993
1049.1	182.022
1048.16	218.915
1047.21	197.78
1046.26	234.657
1045.31	231.978
1044.36	216.123
1043.41	213.449
1042.46	179.16
1041.52	200.202
1040.57	213.335
1039.62	221.197
1038.67	202.727
1037.72	231.647
1036.77	192.127
1035.82	226.301
1034.87	236.785
1033.92	215.699
1032.97	213.03
1032.02	207.733
1031.07	205.067
1030.11	207.659
1029.16	210.249
1028.21	207.584
1027.26	215.429
1026.31	220.644
1025.36	191.715
1024.4	223.19
1023.45	212.649
1022.5	188.988
1021.55	178.456
1020.59	178.424
1019.64	202.003
1018.69	165.246
1017.73	191.441
1016.78	212.383
1015.83	209.723
1014.87	193.959
1013.92	204.407
1012.97	209.611
1012.01	183.376
1011.06	225.251
1010.1	212.117
1009.15	201.606
1008.19	246.072
1007.24	209.385
1006.28	222.432
1005.33	206.694
1004.37	222.352
1003.41	204.004
1002.46	206.583
1001.5	209.16
1000.55	230.035
999.589	203.858
998.633	209.048
997.676	214.236
996.719	195.912
995.761	193.265
994.804	206.287
993.846	201.028
992.889	193.161
991.931	245.323
990.973	193.092
990.014	203.493
989.056	193.023
988.097	206.028
987.139	205.991
986.18	229.417
985.221	187.671
984.261	234.547
983.302	224.082
982.342	224.042
981.382	153.676
980.422	216.149
979.462	242.148
978.502	192.642
977.541	205.621
976.581	195.175
975.62	208.149
974.659	192.504
973.698	215.877
972.736	231.441
971.775	236.6
970.813	213.162
969.851	189.732
968.889	210.486
967.927	228.635
966.964	218.204
966.002	223.359
965.039	215.529
964.076	233.664
963.113	228.43
962.15	194.65
961.186	223.158
960.223	210.146
959.259	210.108
958.295	241.192
957.331	230.777
956.367	235.92
955.402	243.654
954.437	238.427
953.473	277.251
952.508	235.75
951.542	212.396
950.577	214.948
949.611	176.07
948.646	194.16
947.68	173.418
946.714	219.969
945.748	217.342
944.781	199.194
943.815	219.85
942.848	227.568
941.881	214.6
940.914	209.391
939.947	204.184
938.979	201.563
938.012	222.196
937.044	216.99
936.076	219.534
935.108	196.253
934.139	216.873
933.171	221.996
932.202	216.794
931.233	209.014
930.264	190.917
929.295	190.882
928.326	214.059
927.356	211.442
926.387	193.357
925.417	193.322
924.447	201.019
923.476	193.253
922.506	193.218
921.535	190.607
920.565	208.6
919.594	213.712
918.623	218.822
917.651	203.339
916.68	226.464
915.708	195.547
914.737	218.664
913.765	210.909
912.792	208.299
911.82	187.693
910.848	213.365
909.875	215.897
908.902	190.161
907.929	236.373
906.956	233.762
905.982	228.583
905.009	231.109
904.035	241.337
903.061	238.727
902.087	228.418
901.113	192.452
900.138	212.942
899.164	202.643
898.189	194.913
897.214	212.827
896.239	228.17
895.263	225.566
894.288	217.837
893.312	245.983
892.336	240.815
891.36	222.841
890.384	220.24
889.408	235.563
888.431	174.08
887.454	230.359
886.478	222.64
885.5	232.834
884.523	225.118
883.546	214.846
882.568	225.036
881.59	240.336
880.612	227.511
879.634	217.247
878.656	235.095
877.677	240.162
876.699	288.654
875.72	247.737
874.741	217.05
873.762	232.329
872.782	229.735
871.803	234.797
870.823	278.134
869.843	247.469
868.863	255.076
867.883	239.728
866.902	247.334
865.922	242.191
864.941	198.815
863.96	262.491
862.979	214.031
861.997	267.49
861.016	231.783
860.034	247.021
859.052	244.43
858.07	252.023
857.088	246.886
856.105	282.468
855.123	277.329
854.14	254.384
853.157	231.447
852.174	251.749
851.191	249.161
850.207	254.199
849.224	261.778
848.24	269.354
847.256	284.548
846.272	200.672
845.287	241.271
844.303	266.619
843.318	243.722
842.333	248.754
841.348	258.86
840.363	233.44
839.377	241.008
838.392	256.183
837.406	240.921
836.42	271.303
835.434	243.368
834.447	273.74
833.461	228.075
832.474	235.635
831.487	215.326
830.5	260.877
829.513	260.83
828.525	222.804
827.538	237.952
826.55	225.254
825.562	245.457
824.574	230.232
823.586	230.191
822.597	240.265
821.609	250.336
820.62	232.593
819.631	217.385
818.641	260.309
817.652	240.047
816.662	242.53
815.673	239.96
814.683	252.543
813.693	239.873
812.702	254.976
811.712	234.737
810.721	232.171
809.73	214.467
808.739	194.246
807.748	264.833
806.757	232.002
805.765	252.13
804.774	244.522
803.782	257.079
802.79	199.074
801.797	211.635
800.805	224.192
799.812	274.522
798.819	239.219
797.826	234.14
796.833	213.96
795.84	261.739
794.846	228.98
793.853	276.738
792.859	256.565
791.865	241.429
790.87	228.813
789.876	243.855
788.881	236.27
787.887	228.688
786.892	226.134
785.896	251.214
784.901	278.797
783.906	256.145
782.91	258.609
781.914	261.072
780.918	256.005
779.922	278.543
778.925	283.51
777.929	298.509
776.932	300.963
775.935	263.294
774.938	258.232
773.94	283.252
772.943	255.632
771.945	243.057
770.947	290.613
769.949	268.016
768.951	247.932
767.952	245.383
766.954	262.863
765.955	230.276
764.956	242.746
763.957	247.706
762.957	235.153
761.958	240.112
760.958	240.068
759.958	230.024
758.958	244.98
757.958	272.429
756.957	272.379
755.957	222.36
754.956	227.316
753.955	239.762
752.954	257.198
751.952	299.593
750.951	304.53
749.949	334.423
748.947	404.229
747.945	401.66
746.943	381.632
745.941	356.624
744.938	314.171
743.935	304.141
742.932	314.056
741.929	318.982
740.925	371.248
739.922	296.446
738.918	286.429
737.914	273.925
736.91	283.834
735.906	278.804
734.901	251.375
733.897	291.144
732.892	261.235
731.887	251.237
730.882	276.062
729.876	258.605
728.871	246.127
727.865	263.482
726.859	216.214
725.853	238.538
724.847	248.431
723.84	268.257
722.833	275.658
721.826	275.607
720.819	263.145
719.812	285.435
718.805	287.864
717.797	240.67
716.789	262.952
715.781	295.147
714.773	255.416
713.765	252.89
712.756	260.28
711.748	260.233
710.739	260.185
709.73	260.137
708.72	260.09
707.711	252.612
706.701	277.327
705.691	262.423
704.681	264.85
703.671	287.074
702.661	254.855
701.65	291.917
700.64	242.395
699.629	279.445
698.618	291.756
697.606	257.094
696.595	286.706
695.583	252.057
694.571	303.896
693.559	232.203
692.547	274.147
691.535	288.912
690.522	283.922
689.509	323.364
688.496	318.369
687.483	360.259
686.47	372.528
685.456	379.859
684.442	382.256
683.429	404.377
682.414	387.046
681.4	419.018
680.386	369.654
679.371	337.555
678.356	295.614
677.341	305.412
676.326	278.268
675.311	283.141
674.295	300.32
673.279	246.119
672.263	280.524
671.247	260.79
670.231	260.742
669.214	285.288
668.198	299.99
667.181	277.808
666.164	277.757
665.146	243.3
664.129	257.998
663.111	270.234
662.093	260.359
661.075	245.577
660.057	252.898
659.039	233.212
658.02	255.259
657.001	252.758
655.983	267.433
654.963	262.477
653.944	272.24
652.925	262.381
651.905	235.364
650.885	269.638
649.865	279.392
648.845	257.287
647.824	259.69
646.804	301.283
645.783	274.288
644.762	257.098
643.741	249.706
642.719	291.27
641.698	303.453
640.676	281.376
639.654	276.432
638.632	281.272
637.609	251.876
636.587	278.724
635.564	268.894
634.541	281.065
633.518	237.029
632.495	239.428
631.471	300.451
630.448	261.32
629.424	288.132
628.4	214.838
627.376	263.617
626.351	300.175
625.327	278.159
624.302	295.185
623.277	290.252
622.252	282.883
621.226	285.269
620.201	273.027
619.175	302.225
618.149	302.169
617.123	324.041
616.097	270.39
615.07	263.034
614.044	255.68
613.017	299.456
611.99	289.664
610.963	275.008
609.935	260.358
608.908	313.832
607.88	269.991
606.852	265.078
605.824	269.892
604.795	281.997
603.767	262.5
602.738	301.334
601.709	257.544
600.68	286.647
599.65	293.88
598.621	271.971
597.591	269.493
596.561	276.726
595.531	330.068
594.501	300.889
593.47	291.129
592.44	293.501
591.409	286.171
590.378	288.543
589.347	281.216
588.315	322.37
587.284	256.879
586.252	254.408
585.22	256.784
584.188	256.736
583.155	278.483
582.123	278.432
581.09	273.539
580.057	280.749
579.024	292.796
577.99	280.645
576.957	299.944
575.923	270.867
574.889	302.251
573.855	265.932
572.821	316.642
571.786	280.334
570.752	277.865
569.717	297.14
568.682	260.855
567.647	260.807
566.611	284.903
565.576	275.194
564.54	304.106
563.504	260.614
562.467	316.057
561.431	301.525
560.394	306.292
559.358	286.945
558.321	306.179
557.284	277.197
556.246	310.885
555.209	286.733
554.171	267.407
553.133	291.444
552.095	308.247
551.057	272.074
550.018	286.467
548.979	310.482
547.94	295.986
546.901	283.902
545.862	298.282
544.823	291.012
543.783	271.721
542.743	286.096
541.703	307.676
540.663	266.763
539.622	312.367
538.582	302.7
537.541	281.026
536.5	273.77
535.459	252.11
534.417	276.069
533.376	300.019
532.334	280.766
531.292	261.52
530.25	290.257
529.207	275.813
528.165	323.72
527.122	275.71
526.079	282.85
525.036	297.177
523.992	273.161
522.949	275.506
521.905	292.221
520.861	282.588
519.817	296.901
518.773	308.816
517.728	339.874
516.684	277.592
515.639	299.073
514.594	289.449
513.548	277.437
512.503	320.428
511.457	298.851
510.411	286.844
509.365	274.841
508.319	298.684
507.273	310.574
506.226	269.91
505.179	320.011
504.132	322.339
503.085	336.603
502.037	286.417
500.99	300.682
499.942	305.398
498.894	300.57
497.846	331.52
496.797	309.997
495.749	293.25
494.7	312.265
493.651	316.974
492.602	312.149
491.552	290.649
490.503	302.505
489.453	288.16
488.403	304.773
487.353	333.284
486.303	328.461
485.252	368.855
484.201	359.27
483.15	359.203
482.099	375.784
481.048	349.557
479.996	290.055
478.945	325.656
477.893	332.725
476.841	299.397
475.788	289.838
474.736	306.411
473.683	292.105
472.63	289.676
471.577	329.98
470.524	318.051
469.47	272.903
468.417	303.696
467.363	327.361
466.309	303.583
465.254	296.412
464.2	298.728
463.145	284.45
462.09	324.686
461.035	293.822
459.98	281.921
458.925	336.348
457.869	269.975
456.813	314.912
455.757	279.344
454.701	298.227
453.644	305.27
452.588	369.095
451.531	300.425
450.474	347.671
449.417	305.042
448.359	338.085
447.302	316.747
446.244	307.235
445.186	361.524
444.128	321.295
443.069	325.959
442.011	318.813
440.952	340.004
439.893	347.023
438.834	316.274
437.774	330.374
436.715	320.875
435.655	330.251
434.595	304.246
433.535	332.485
432.474	315.92
431.414	308.789
430.353	351.153
429.292	325.168
428.231	358.089
427.169	317.98
426.108	350.89
425.046	301.379
423.984	324.864
422.922	345.986
421.859	320.036
420.797	336.445
419.734	322.268
418.671	341.023
417.608	352.717
416.544	298.577
415.481	357.286
414.417	350.168
413.353	347.753
412.289	345.339
411.225	326.484
410.16	333.468
409.095	375.668
408.03	328.648
406.965	298.075
405.9	335.565
404.834	333.156
403.768	358.896
402.702	375.246
401.636	382.21
400.57	391.516
399.503	349.251
398.436	379.652
397.37	363.179
396.302	330.314
395.235	351.332
394.167	309.114
393.1	348.859
392.032	360.498
390.964	351.068
389.895	362.703
388.827	346.257
387.758	357.888
386.689	336.773
385.62	341.386
384.55	345.998
383.481	336.583
382.411	364.563
381.341	366.832
380.271	362.091
379.2	350.345
378.13	310.58
377.059	354.883
375.988	359.485
374.917	382.756
373.846	380.351
372.774	340.618
371.702	375.543
370.63	361.479
369.558	408.045
368.486	347.356
367.413	370.599
366.34	365.869
365.267	393.759
364.194	377.379
363.121	379.637
362.047	370.251
360.973	407.432
359.899	372.439
358.825	395.643
357.751	395.568
356.676	367.577
355.601	372.16
354.526	367.438
353.451	374.345
352.376	381.248
351.3	399.771
350.224	385.753
349.148	353.153
348.072	364.701
346.996	383.212
345.919	392.429
344.842	408.606
343.765	422.456
342.688	389.886
341.61	368.93
340.533	385.1
339.455	378.069
338.377	366.403
337.299	359.378
336.22	384.81
335.141	403.279
334.063	380.031
332.984	368.375
331.904	368.306
330.825	391.396
329.745	372.798
328.665	388.933
327.585	386.545
326.505	395.729
325.424	391.027
324.344	411.774
323.263	407.07
322.182	390.806
321.1	358.364
320.019	390.659
318.937	409.074
317.855	378.958
316.773	422.782
315.691	411.153
314.608	383.363
313.526	385.599
312.443	438.623
311.359	371.605
310.276	380.766
309.193	385.308
308.109	382.929
307.025	422.065
305.941	408.15
304.856	419.6
303.772	419.521
302.687	373.349
301.602	389.408
300.517	419.283
299.431	361.621
298.346	426.034
297.26	372.997
296.174	398.249
295.088	425.793
294.001	411.905
292.915	434.835
291.828	395.648
290.741	381.774
289.654	427.69
288.566	377.032
287.479	427.528
286.391	418.255
285.303	381.413
284.214	402.017
283.126	418.018
282.037	399.568
280.948	452.299
279.859	397.122
278.77	408.522
277.681	422.212
276.591	383.131
275.501	412.878
274.411	401.333
273.321	426.479
272.23	437.861
271.139	467.574
270.048	430.82
268.957	423.865
267.866	458.146
266.774	407.673
265.682	435.074
264.59	483.07
263.498	503.579
262.406	455.424
261.313	453.05
260.221	498.718
259.128	487.187
258.034	452.793
256.941	470.998
255.847	452.621
254.753	418.252
253.659	466.16
252.565	450.079
251.471	438.573
250.376	468.179
249.281	431.557
248.186	436.041
247.091	479.326
245.995	445.004
244.9	472.299
243.804	426.585
242.708	451.593
241.611	472.031
240.515	428.623
239.418	451.336
238.321	462.646
237.224	476.23
236.126	439.689
235.029	480.605
233.931	494.178
232.833	478.146
231.735	471.226
230.636	446.1
229.538	489.252
228.439	505.085
227.34	479.967
226.241	448.036
225.141	488.88
224.042	475.147
222.942	486.422
221.842	463.604
220.741	515.775
219.641	470.243
218.54	501.951
217.439	495.044
216.338	458.623
215.237	494.856
214.135	460.718
213.034	478.784
211.932	451.469
210.829	499.016
209.727	501.189
208.624	492.024
207.522	473.795
206.419	543.968
205.315	487.212
204.212	507.51
203.108	523.27
202.005	484.669
200.9	502.692
199.796	493.541
198.692	500.237
197.587	495.616
196.482	522.674
195.377	504.477
194.272	524.737
193.166	535.944
192.06	479.318
190.955	501.832
189.848	494.957
188.742	467.747
187.635	528.657
186.529	499.192
185.422	494.58
184.314	553.192
183.207	480.847
182.099	519.125
180.992	525.796
179.883	557.283
178.775	505.294
177.667	502.943
176.558	538.926
175.449	565.877
174.34	561.261
173.231	597.212
172.121	522.743
171.011	554.182
169.901	540.562
168.791	549.467
167.681	513.338
166.57	562.764
165.46	587.413
164.349	571.55
163.237	526.446
162.126	553.338
161.014	571.223
159.902	593.599
158.79	566.509
157.678	521.449
156.565	582.024
155.453	570.679
154.34	554.846
153.227	534.527
152.113	502.988
151	518.607
149.886	558.912
148.772	534.119
147.658	554.211
146.543	578.782
145.429	596.615
144.314	580.803
143.199	607.597
142.084	594.031
140.968	575.988
139.853	566.915
138.737	593.691
137.621	580.138
136.504	597.943
135.388	591.112
134.271	604.431
133.154	590.886
132.037	628.815
130.919	595.135
129.802	608.443
128.684	628.455
127.566	617.155
126.448	619.272
125.329	603.507
124.211	650.323
123.092	601.042
121.973	627.735
120.853	629.848
119.734	634.194
118.614	645.236
117.494	627.255
116.374	611.512
115.253	642.634
114.133	629.126
113.012	635.697
111.891	693.558
110.77	664.439
109.648	568.455
108.527	608.465
107.405	626.175
106.283	614.916
105.16	623.708
104.038	565.684
102.915	598.976
101.792	565.468
100.669	556.456
