3201.26	75.8031
3200.67	42.1129
3200.08	54.7384
3199.48	42.1001
3198.89	67.35
3198.3	37.8787
3197.7	84.1621
3197.11	50.4896
3196.51	58.8957
3195.92	71.5054
3195.32	75.7001
3194.73	54.6641
3194.13	79.8816
3193.54	63.0549
3192.95	33.6242
3192.35	29.4167
3191.76	84.035
3191.16	12.6033
3190.56	21.0024
3189.97	62.9977
3189.37	58.789
3188.78	50.3829
3188.18	62.9691
3187.59	54.565
3186.99	46.1634
3186.4	62.9406
3185.8	50.3449
3185.2	79.7006
3184.61	25.1648
3184.01	83.87
3183.42	46.1215
3182.82	75.4602
3182.22	41.916
3181.63	29.3368
3181.03	33.5226
3180.43	46.0867
3179.84	41.8906
3179.24	71.2033
3178.64	62.8169
3178.05	79.5561
3177.45	29.3057
3176.85	41.859
3176.25	71.1495
3175.66	41.8463
3175.06	66.9439
3174.46	29.2835
3173.86	29.2791
3173.27	58.5493
3172.67	66.9034
3172.07	41.8083
3171.47	66.8832
3170.87	50.1548
3170.28	37.6104
3169.68	50.1396
3169.08	37.599
3168.48	25.0622
3167.88	29.2348
3167.28	25.0546
3166.68	54.2768
3166.09	54.2686
3165.49	62.6081
3164.89	58.4254
3164.29	50.0713
3163.69	75.0956
3163.09	70.9129
3162.49	29.195
3161.89	75.0615
3161.29	70.8806
3160.69	45.857
3160.09	58.3546
3159.49	66.6809
3158.89	45.8362
3158.29	45.8292
3157.69	66.6506
3157.09	49.9803
3156.49	41.644
3155.89	33.3101
3155.29	54.1208
3154.69	29.1375
3154.09	37.4569
3153.49	66.5799
3152.89	70.7304
3152.29	45.7598
3151.69	41.5935
3151.08	41.5872
3150.48	29.1066
3149.88	83.1492
3149.28	45.7251
3148.68	49.8744
3148.08	74.8002
3147.48	24.9296
3146.87	54.006
3146.27	62.3052
3145.67	74.7549
3145.07	45.6766
3144.47	53.9732
3143.86	41.5116
3143.26	124.516
3142.66	74.6982
3142.06	74.6868
3141.45	70.5269
3140.85	66.3682
3140.25	78.8002
3139.64	78.7883
3139.04	70.4841
3138.44	87.0553
3137.84	41.4486
3137.23	70.452
3136.63	70.4413
3136.03	33.1438
3135.42	74.5622
3134.82	86.9761
3134.21	82.8218
3133.61	24.8428
3133.01	53.8178
3132.4	74.5057
3131.8	41.3858
3131.19	37.2415
3130.59	45.5105
3129.99	62.0504
3129.38	82.7212
3128.78	70.3024
3128.17	57.8873
3127.57	74.4152
3126.96	41.3355
3126.36	24.7975
3125.75	37.1906
3125.15	45.4483
3124.54	33.0483
3123.94	49.5649
3123.33	53.6872
3122.73	45.4207
3122.12	53.6709
3121.52	61.9185
3120.91	53.6546
3120.3	45.3931
3119.7	74.2683
3119.09	28.8777
3118.49	32.9981
3117.88	16.4966
3117.27	20.6176
3116.67	61.8433
3116.06	45.3448
3115.45	45.3379
3114.85	49.452
3114.24	74.1668
3113.63	53.5568
3113.03	65.906
3112.42	49.422
3111.81	82.3574
3111.21	82.3449
3110.6	45.2828
3109.99	53.5079
3109.38	65.8459
3108.78	57.6064
3108.17	78.1682
3107.56	69.9293
3106.95	41.1286
3106.34	94.5815
3105.74	57.5626
3105.13	36.9989
3104.52	32.8829
3103.91	32.8779
3103.3	86.2913
3102.7	78.0612
3102.09	61.6179
3101.48	69.823
3100.87	65.7057
3100.26	69.8017
3099.65	20.5268
3099.04	57.4663
3098.43	41.0411
3097.82	45.1383
3097.21	32.8229
3096.61	57.4313
3096	110.743
3095.39	69.7167
3094.78	82.0072
3094.17	40.9974
3093.56	28.6938
3092.95	49.1818
3092.34	77.8594
3091.73	77.8475
3091.12	49.1594
3090.51	36.8639
3089.9	36.8583
3089.28	45.0422
3088.67	45.0353
3088.06	85.9634
3087.45	85.9503
3086.84	20.4612
3086.23	98.199
3085.62	49.092
3085.01	94.0787
3084.4	40.8975
3083.79	36.8022
3083.17	49.0621
3082.56	57.2304
3081.95	36.7853
3081.34	49.0397
3080.73	81.7203
3080.12	32.6831
3079.5	40.8477
3078.89	77.5988
3078.28	61.2528
3077.67	61.2435
3077.05	40.8228
3076.44	57.1432
3075.83	65.2965
3075.22	65.2866
3074.6	61.1968
3073.99	69.3458
3073.38	44.864
3072.77	65.2467
3072.15	48.9276
3071.54	57.0735
3070.93	57.0648
3070.31	85.5841
3069.7	28.5237
3069.08	77.4096
3068.47	48.8828
3067.86	52.9483
3067.24	69.2295
3066.63	81.4341
3066.02	65.1373
3065.4	65.1274
3064.79	65.1174
3064.17	48.8306
3063.56	48.8232
3062.94	77.2915
3062.33	73.2124
3061.71	61.001
3061.1	65.0578
3060.48	65.0479
3059.87	85.3623
3059.25	69.0922
3058.64	65.0181
3058.02	36.5671
3057.41	24.3743
3056.79	28.4324
3056.18	81.2229
3055.56	64.9684
3054.95	36.5392
3054.33	52.7707
3053.71	81.1733
3053.1	56.8126
3052.48	77.0911
3051.87	56.7953
3051.25	44.618
3050.63	73.0002
3050.02	44.6044
3049.4	52.7062
3048.78	44.5908
3048.17	81.0617
3047.55	64.8395
3046.93	48.6222
3046.31	52.666
3045.7	48.6073
3045.08	52.6499
3044.46	52.6418
3043.85	60.7313
3043.23	76.9145
3042.61	72.8553
3041.99	64.7503
3041.37	72.833
3040.76	60.6849
3040.14	105.171
3039.52	68.7551
3038.9	88.9636
3038.28	40.4318
3037.67	72.7662
3037.05	68.7131
3036.43	52.5373
3035.81	60.6106
3035.19	44.441
3034.57	68.671
3033.95	56.544
3033.33	84.803
3032.71	60.5643
3032.1	80.74
3031.48	76.6913
3030.86	80.7153
3030.24	84.7381
3029.62	88.7597
3029	84.7122
3028.38	76.6326
3027.76	92.7516
3027.14	84.6733
3026.52	60.4716
3025.9	88.6782
3025.28	88.6646
3024.66	60.4439
3024.04	72.5215
3023.42	72.5104
3022.8	96.6658
3022.17	100.678
3021.55	56.3711
3020.93	72.466
3020.31	48.3033
3019.69	72.4438
3019.07	64.3846
3018.45	72.4216
3017.83	52.2965
3017.2	92.5104
3016.58	92.4962
3015.96	76.3982
3015.34	52.2644
3014.72	48.2367
3014.1	76.3631
3013.47	64.2959
3012.85	64.286
3012.23	108.466
3011.61	108.449
3010.98	56.2244
3010.36	76.2929
3009.74	68.2516
3009.12	68.2411
3008.49	36.1221
3007.87	60.1943
3007.25	100.308
3006.62	60.1758
3006	76.211
3005.38	72.1889
3004.75	68.1679
3004.13	76.176
3003.51	92.1989
3002.88	100.201
3002.26	120.223
3001.63	72.1224
3001.01	48.0743
3000.39	92.1282
2999.76	88.1091
2999.14	88.0956
2998.51	68.0634
2997.89	104.081
2997.26	68.0425
2996.64	76.0358
2996.02	60.0191
2995.39	84.0138
2994.77	40.0004
2994.14	79.9886
2993.51	107.968
2992.89	83.9623
2992.26	99.9397
2991.64	99.9244
2991.01	75.9309
2990.39	99.8937
2989.76	79.9027
2989.14	95.8685
2988.51	119.817
2987.88	83.8592
2987.26	99.817
2986.63	123.754
2986.01	79.8291
2985.38	91.7893
2984.75	75.8143
2984.13	103.73
2983.5	83.769
2982.87	87.7446
2982.25	111.658
2981.62	115.628
2980.99	151.489
2980.36	119.578
2979.74	103.618
2979.11	111.572
2978.48	131.475
2977.85	123.488
2977.23	143.384
2976.6	143.362
2975.97	111.486
2975.34	119.431
2974.71	95.5303
2974.09	111.435
2973.46	83.5633
2972.83	107.422
2972.2	115.361
2971.57	123.298
2970.94	115.326
2970.32	143.141
2969.69	127.217
2969.06	111.298
2968.43	123.204
2967.8	131.132
2967.17	79.4618
2966.54	178.762
2965.91	119.156
2965.28	99.2814
2964.65	150.885
2964.02	154.831
2963.39	134.96
2962.76	162.721
2962.13	142.855
2961.5	122.995
2960.87	107.108
2960.24	158.655
2959.61	107.076
2958.98	130.85
2958.35	130.83
2957.72	138.737
2957.09	118.9
2956.46	134.732
2955.83	122.825
2955.2	146.575
2954.57	122.787
2953.93	142.57
2953.3	142.548
2952.67	162.321
2952.04	126.67
2951.41	154.355
2950.78	150.374
2950.14	130.568
2949.51	138.46
2948.88	142.394
2948.25	142.372
2947.62	158.167
2946.98	138.375
2946.35	166.024
2945.72	169.951
2945.09	138.311
2944.45	158.045
2943.82	158.021
2943.19	150.097
2942.55	185.617
2941.92	126.358
2941.29	169.768
2940.65	169.741
2940.02	149.981
2939.39	153.904
2938.75	173.609
2938.12	134.131
2937.49	149.888
2936.85	110.427
2936.22	193.218
2935.58	137.991
2934.95	137.97
2934.32	169.48
2933.68	165.513
2933.05	133.966
2932.41	157.583
2931.78	169.375
2931.14	169.349
2930.51	145.697
2929.87	161.423
2929.24	192.89
2928.6	173.181
2927.97	192.83
2927.33	173.127
2926.7	169.166
2926.06	173.074
2925.43	133.718
2924.79	161.224
2924.15	180.857
2923.52	200.484
2922.88	153.288
2922.25	137.545
2921.61	157.17
2920.97	157.146
2920.34	184.618
2919.7	133.533
2919.06	192.414
2918.43	141.344
2917.79	157.024
2917.15	145.225
2916.52	172.673
2915.88	180.494
2915.24	153.004
2914.6	137.29
2913.97	149.035
2913.33	137.248
2912.69	180.355
2912.05	164.646
2911.42	180.299
2910.78	156.758
2910.14	156.733
2909.5	188.051
2908.86	160.602
2908.23	207.576
2907.59	199.712
2906.95	168.358
2906.31	156.588
2905.67	144.822
2905.03	183.934
2904.39	136.951
2903.75	176.053
2903.12	160.379
2902.48	191.643
2901.84	168.15
2901.2	121.206
2900.56	156.37
2899.92	164.164
2899.28	140.69
2898.64	175.835
2898	160.181
2897.36	144.531
2896.72	117.169
2896.08	167.916
2895.44	136.655
2894.8	167.864
2894.16	156.129
2893.52	163.91
2892.88	167.786
2892.24	128.746
2891.59	156.032
2890.95	167.709
2890.31	159.883
2889.67	175.455
2889.03	175.428
2888.39	245.561
2887.75	214.345
2887.11	144.173
2886.46	171.423
2885.82	128.547
2885.18	237.581
2884.54	159.661
2883.9	175.21
2883.25	175.183
2882.61	155.694
2881.97	190.696
2881.33	198.449
2880.68	171.184
2880.04	155.598
2879.4	213.914
2878.76	167.216
2878.11	202.183
2877.47	167.164
2876.83	159.364
2876.18	182.658
2875.54	190.401
2874.9	151.52
2874.25	174.804
2873.61	147.589
2872.97	147.566
2872.32	186.371
2871.68	190.224
2871.03	194.076
2870.39	166.879
2869.75	166.854
2869.1	186.226
2868.46	201.714
2867.81	143.505
2867.17	201.651
2866.52	162.847
2865.88	201.589
2865.23	158.92
2864.59	193.775
2863.94	201.495
2863.3	189.841
2862.65	158.822
2862.01	174.29
2861.36	131.665
2860.71	131.645
2860.07	158.723
2859.42	158.699
2858.78	139.324
2858.13	158.649
2857.48	162.494
2856.84	208.888
2856.19	170.179
2855.55	185.621
2854.9	135.327
2854.25	154.636
2853.61	143.016
2852.96	104.347
2852.31	162.292
2851.66	142.949
2851.02	139.064
2850.37	173.803
2849.72	146.744
2849.08	146.722
2848.43	189.164
2847.78	123.517
2847.13	142.794
2846.48	119.62
2845.84	123.459
2845.19	146.585
2844.54	127.278
2843.89	127.258
2843.24	104.104
2842.59	100.233
2841.95	100.217
2841.3	100.202
2840.65	88.6261
2840	138.698
2839.35	115.563
2838.7	96.2878
2838.05	88.571
2837.4	130.911
2836.75	103.942
2836.1	103.926
2835.45	80.8189
2834.81	138.525
2834.16	134.656
2833.51	119.248
2832.86	103.845
2832.21	103.829
2831.56	92.2784
2830.9	103.797
2830.25	76.8747
2829.6	69.1765
2828.95	146.017
2828.3	119.1
2827.65	84.5096
2827	88.3372
2826.35	122.885
2825.7	80.6306
2825.05	76.7791
2824.4	111.312
2823.74	111.295
2823.09	80.5805
2822.44	92.0776
2821.79	115.079
2821.14	99.7197
2820.49	103.539
2819.83	118.86
2819.18	118.841
2818.53	126.489
2817.88	141.798
2817.23	141.776
2816.57	111.105
2815.92	99.5956
2815.27	137.88
2814.61	91.9058
2813.96	99.5491
2813.31	118.675
2812.66	80.38
2812	91.8486
2811.35	126.272
2810.7	122.427
2810.04	80.3299
2809.39	114.739
2808.73	133.842
2808.08	114.703
2807.43	91.7485
2806.77	114.668
2806.12	87.8982
2805.46	80.2424
2804.81	114.614
2804.15	133.696
2803.5	106.94
2802.85	95.4671
2802.19	91.6342
2801.54	99.2549
2800.88	110.69
2800.23	118.305
2799.57	106.84
2798.92	110.638
2798.26	102.992
2797.6	125.86
2796.95	118.213
2796.29	87.6929
2795.64	114.364
2794.98	102.912
2794.33	99.0848
2793.67	95.259
2793.01	80.0051
2792.36	125.703
2791.7	118.066
2791.04	121.855
2790.39	106.607
2789.73	95.1699
2789.07	53.2868
2788.42	133.196
2787.76	98.9303
2787.1	117.937
2786.45	117.919
2785.79	114.097
2785.13	87.4607
2784.47	87.447
2783.82	98.8378
2783.16	83.6189
2782.5	95.0066
2781.84	91.1921
2781.18	87.3788
2780.53	167.133
2779.87	113.937
2779.21	159.487
2778.55	140.478
2777.89	132.864
2777.23	91.0925
2776.57	129.028
2775.92	110.036
2775.26	102.431
2774.6	102.415
2773.94	121.362
2773.28	128.927
2772.62	128.907
2771.96	98.5603
2771.3	140.237
2770.64	147.794
2769.98	87.1471
2769.32	83.3451
2768.66	124.998
2768	90.8935
2767.34	87.0927
2766.68	113.581
2766.02	136.276
2765.36	90.8367
2764.7	109.744
2764.04	98.3757
2763.38	64.3125
2762.72	132.387
2762.06	128.585
2761.39	109.658
2760.73	132.325
2760.07	86.943
2759.41	113.386
2758.75	102.032
2758.09	109.572
2757.43	117.111
2756.76	86.8751
2756.1	132.18
2755.44	169.92
2754.78	128.364
2754.12	120.794
2753.45	139.646
2752.79	120.756
2752.13	116.964
2751.46	143.353
2750.8	116.928
2750.14	139.537
2749.48	86.7257
2748.81	154.574
2748.15	113.085
2747.49	82.916
2746.82	120.586
2746.16	131.871
2745.5	90.4114
2744.83	120.53
2744.17	94.149
2743.5	135.553
2742.84	90.3548
2742.18	127.983
2741.51	139.253
2740.85	124.179
2740.18	109.11
2739.52	101.57
2738.85	112.837
2738.19	139.144
2737.52	131.602
2736.86	127.822
2736.19	131.561
2735.53	157.849
2734.86	97.7005
2734.2	101.442
2733.53	146.505
2732.87	135.214
2732.2	142.704
2731.54	123.907
2730.87	90.1003
2730.2	112.608
2729.54	131.355
2728.87	123.83
2728.2	135.066
2727.54	105.035
2726.87	101.268
2726.21	131.252
2725.54	194.973
2724.87	131.211
2724.2	146.184
2723.54	149.908
2722.87	127.402
2722.2	149.861
2721.54	97.3947
2720.87	134.833
2720.2	146.046
2719.53	138.535
2718.87	119.795
2718.2	157.206
2717.53	153.439
2716.86	97.2878
2716.19	145.909
2715.52	123.442
2714.86	115.942
2714.19	115.924
2713.52	168.251
2712.85	153.271
2712.18	142.034
2711.51	145.749
2710.84	119.57
2710.17	134.495
2709.5	134.474
2708.84	156.861
2708.17	145.634
2707.5	141.878
2706.83	164.254
2706.16	138.101
2705.49	108.224
2704.82	134.326
2704.15	111.921
2703.48	126.824
2702.81	93.238
2702.14	137.971
2701.47	141.677
2700.79	108.105
2700.12	108.088
2699.45	119.251
2698.78	93.1502
2698.11	100.586
2697.44	189.967
2696.77	115.452
2696.1	126.605
2695.43	111.692
2694.75	122.842
2694.08	122.823
2693.41	152.574
2692.74	104.181
2692.07	104.164
2691.39	130.185
2690.72	141.321
2690.05	159.891
2689.38	141.277
2688.71	133.82
2688.03	156.099
2687.36	126.346
2686.69	130.042
2686.01	100.302
2685.34	118.858
2684.67	115.125
2683.99	144.812
2683.32	115.089
2682.65	96.5113
2681.97	92.7847
2681.3	129.878
2680.63	100.176
2679.95	126.128
2679.28	129.817
2678.6	126.088
2677.93	218.765
2677.26	122.341
2676.58	129.735
2675.91	144.539
2675.23	133.4
2674.56	122.264
2673.88	100.018
2673.21	129.633
2672.53	148.129
2671.86	125.89
2671.18	162.89
2670.51	140.656
2669.83	181.343
2669.16	148.012
2668.48	133.19
2667.8	122.072
2667.13	140.545
2666.45	114.637
2665.78	140.501
2665.1	151.569
2664.42	129.368
2663.75	158.913
2663.07	158.888
2662.39	136.696
2661.72	140.368
2661.04	140.346
2660.36	121.86
2659.69	155.07
2659.01	140.28
2658.33	143.948
2657.65	125.474
2656.98	129.144
2656.3	177.084
2655.62	165.99
2654.94	114.33
2654.26	132.75
2653.59	143.79
2652.91	140.081
2652.23	129.001
2651.55	128.981
2650.87	128.961
2650.19	110.52
2649.52	158.387
2648.84	128.9
2648.16	154.655
2647.48	139.904
2646.8	139.882
2646.12	143.54
2645.44	136.158
2644.76	125.098
2644.08	132.436
2643.4	161.841
2642.72	136.072
2642.04	147.082
2641.36	125
2640.68	150.711
2640	154.362
2639.32	150.663
2638.64	143.291
2637.96	143.269
2637.28	172.63
2636.6	113.844
2635.92	113.826
2635.24	146.849
2634.56	154.168
2633.88	113.772
2633.19	143.11
2632.51	172.439
2631.83	168.744
2631.15	106.365
2630.47	150.354
2629.79	139.331
2629.1	142.975
2628.42	139.287
2627.74	106.281
2627.06	139.243
2626.38	142.884
2625.69	153.851
2625.01	120.864
2624.33	124.507
2623.65	161.101
2622.96	172.058
2622.28	175.691
2621.6	117.109
2620.91	175.636
2620.23	146.34
2619.55	157.29
2618.86	135.322
2618.18	168.211
2617.5	135.279
2616.81	164.502
2616.13	182.751
2615.44	142.523
2614.76	179.04
2614.07	193.624
2613.39	149.761
2612.71	175.303
2612.02	124.153
2611.34	156.992
2610.65	178.87
2609.97	178.841
2609.28	142.321
2608.6	145.947
2607.91	164.164
2607.23	149.548
2606.54	142.231
2605.85	127.623
2605.17	185.935
2604.48	138.518
2603.8	153.074
2603.11	142.118
2602.42	145.739
2601.74	134.787
2601.05	131.124
2600.37	167.52
2599.68	138.364
2598.99	149.264
2598.31	149.241
2597.62	123.741
2596.93	138.277
2596.24	152.808
2595.56	127.32
2594.87	127.3
2594.18	203.647
2593.49	185.435
2592.81	170.864
2592.12	167.202
2591.43	141.736
2590.74	148.981
2590.06	148.957
2589.37	163.464
2588.68	145.278
2587.99	152.518
2587.3	156.124
2586.61	174.251
2585.92	159.704
2585.24	145.163
2584.55	152.397
2583.86	152.373
2583.17	170.485
2582.48	155.951
2581.79	177.684
2581.1	145.025
2580.41	199.377
2579.72	137.73
2579.03	173.947
2578.34	159.426
2577.65	155.778
2576.96	155.753
2576.27	177.458
2575.58	123.115
2574.89	144.818
2574.2	184.613
2573.51	162.868
2572.82	133.893
2572.13	144.726
2571.43	177.261
2570.74	173.616
2570.05	151.89
2569.36	166.329
2568.67	173.533
2567.98	184.35
2567.29	144.565
2566.59	169.837
2565.9	162.584
2565.21	166.171
2564.52	162.533
2563.83	144.45
2563.13	158.87
2562.44	184.116
2561.75	166.039
2561.06	133.532
2560.36	162.378
2559.67	194.822
2558.98	111.825
2558.28	158.694
2557.59	173.093
2556.9	155.038
2556.2	155.013
2555.51	209.054
2554.82	162.171
2554.12	158.542
2553.43	158.517
2552.73	165.696
2552.04	198.084
2551.35	144.038
2550.65	165.617
2549.96	143.992
2549.26	122.374
2548.57	154.742
2547.87	187.1
2547.18	161.888
2546.48	194.235
2545.79	204.993
2545.09	165.407
2544.4	194.142
2543.7	154.57
2543.01	158.14
2542.31	194.049
2541.61	165.275
2540.92	172.434
2540.22	158.039
2539.53	175.97
2538.83	161.579
2538.13	186.684
2537.44	157.938
2536.74	197.392
2536.04	197.36
2535.35	179.39
2534.65	157.838
2533.95	157.813
2533.26	154.201
2532.56	186.447
2531.86	233.021
2531.16	168.465
2530.47	161.271
2529.77	189.911
2529.07	200.629
2528.37	164.776
2527.68	139.679
2526.98	189.79
2526.28	161.117
2525.58	161.091
2524.88	171.803
2524.18	196.827
2523.48	200.373
2522.79	171.721
2522.09	175.271
2521.39	182.396
2520.69	196.67
2519.99	193.063
2519.29	175.159
2518.59	153.686
2517.89	207.265
2517.19	207.232
2516.49	192.909
2515.79	175.019
2515.09	153.564
2514.39	182.105
2513.69	135.664
2512.99	157.06
2512.29	189.156
2511.59	181.989
2510.89	164.121
2510.19	192.633
2509.49	228.269
2508.79	192.571
2508.09	181.844
2507.38	149.73
2506.68	188.915
2505.98	199.576
2505.28	149.658
2504.58	192.387
2503.88	163.859
2503.17	163.833
2502.47	149.563
2501.77	170.902
2501.07	174.434
2500.36	209.999
2499.66	202.848
2498.96	181.467
2498.26	163.65
2497.55	181.409
2496.85	213.388
2496.15	149.348
2495.45	234.652
2494.74	184.848
2494.04	174.156
2493.33	209.664
2492.63	206.078
2491.93	174.072
2491.22	149.181
2490.52	152.709
2489.82	184.641
2489.11	213.014
2488.41	170.384
2487.7	191.651
2487	173.878
2486.29	180.946
2485.59	145.443
2484.88	170.248
2484.18	177.313
2483.47	234.016
2482.77	205.617
2482.06	155.961
2481.36	180.744
2480.65	177.171
2479.95	201.943
2479.24	191.284
2478.54	208.962
2477.83	216.011
2477.12	201.814
2476.42	180.541
2475.71	187.591
2475	194.639
2474.3	201.685
2473.59	169.813
2472.88	176.86
2472.18	159.148
2471.47	215.7
2470.76	212.13
2470.06	169.677
2469.35	162.581
2468.64	194.359
2467.93	187.262
2467.23	215.493
2466.52	229.587
2465.81	123.604
2465.1	187.142
2464.39	194.173
2463.69	197.671
2462.98	183.523
2462.27	204.666
2461.56	201.105
2460.85	197.545
2460.14	137.554
2459.43	218.64
2458.73	169.243
2458.02	200.944
2457.31	222.06
2456.6	214.976
2455.89	190.276
2455.18	236.046
2454.47	172.603
2453.76	172.575
2453.05	169.026
2452.34	179.561
2451.63	172.492
2450.92	253.417
2450.21	182.994
2449.5	175.928
2448.79	186.454
2448.08	204.011
2447.36	221.562
2446.65	175.815
2445.94	228.523
2445.23	256.608
2444.52	207.362
2443.81	168.674
2443.1	186.215
2442.39	207.262
2441.67	179.13
2440.96	196.66
2440.25	182.584
2439.54	214.151
2438.83	228.157
2438.11	182.496
2437.4	189.485
2436.69	210.505
2435.98	168.377
2435.26	192.901
2434.55	182.35
2433.84	213.876
2433.12	203.325
2432.41	196.282
2431.7	217.277
2430.98	189.211
2430.27	178.671
2429.56	238.19
2428.84	220.64
2428.13	206.598
2427.41	224.071
2426.7	203.031
2425.99	157.499
2425.27	188.968
2424.56	185.439
2423.84	241.382
2423.13	234.348
2422.41	237.807
2421.7	202.803
2420.98	202.771
2420.27	185.261
2419.55	192.221
2418.84	206.167
2418.12	209.628
2417.41	195.621
2416.69	160.663
2415.97	206.035
2415.26	212.985
2414.54	233.897
2413.83	261.782
2413.11	233.821
2412.39	195.401
2411.68	226.769
2410.96	230.22
2410.24	240.646
2409.53	198.763
2408.81	202.217
2408.09	209.157
2407.37	216.094
2406.66	202.12
2405.94	188.15
2405.22	222.957
2404.5	191.573
2403.79	184.577
2403.07	250.706
2402.35	201.925
2401.63	212.335
2400.91	229.703
2400.19	240.105
2399.48	236.587
2398.76	212.198
2398.04	191.296
2397.32	219.085
2396.6	215.573
2395.88	222.491
2395.16	201.6
2394.44	243.271
2393.72	173.737
2393	187.606
2392.28	208.418
2391.56	225.749
2390.84	239.603
2390.12	194.429
2389.4	229.112
2388.68	236.017
2387.96	232.508
2387.24	215.122
2386.52	208.149
2385.8	194.241
2385.08	228.891
2384.36	228.854
2383.64	208.015
2382.92	235.713
2382.2	221.811
2381.48	242.567
2380.75	256.387
2380.03	242.489
2379.31	197.424
2378.59	242.411
2377.87	218.135
2377.14	235.409
2376.42	214.603
2375.7	224.951
2374.98	193.772
2374.25	214.499
2373.53	214.465
2372.81	255.933
2372.09	217.853
2371.36	245.478
2370.64	214.326
2369.92	266.137
2369.19	231.536
2368.47	183.126
2367.75	221.097
2367.02	227.97
2366.3	203.758
2365.57	207.179
2364.85	214.05
2364.13	220.919
2363.4	265.75
2362.68	207.045
2361.95	269.115
2361.23	231.125
2360.5	206.945
2359.78	227.602
2359.05	220.67
2358.33	172.37
2357.6	224.045
2356.88	210.224
2356.15	230.864
2355.43	230.827
2354.7	213.567
2353.97	223.864
2353.25	241.046
2352.52	247.893
2351.8	237.526
2351.07	230.604
2350.34	234.008
2349.62	244.292
2348.89	227.052
2348.16	230.455
2347.44	216.661
2346.71	237.257
2345.98	209.715
2345.25	250.93
2344.53	237.142
2343.8	254.285
2343.07	237.066
2342.34	237.027
2341.62	219.816
2340.89	223.214
2340.16	267.814
2339.43	240.307
2338.7	236.836
2337.97	229.934
2337.25	253.916
2336.52	205.844
2335.79	226.392
2335.06	267.511
2334.33	260.61
2333.6	229.711
2332.87	215.962
2332.14	205.645
2331.41	229.599
2330.68	253.546
2329.95	267.208
2329.22	215.787
2328.49	219.177
2327.76	225.99
2327.03	263.612
2326.3	232.762
2325.57	242.992
2324.84	225.843
2324.11	249.756
2323.38	229.191
2322.65	239.414
2321.92	253.054
2321.19	270.109
2320.46	229.043
2319.72	263.185
2318.99	194.794
2318.26	280.185
2317.53	242.56
2316.8	242.52
2316.07	262.972
2315.33	235.612
2314.6	286.786
2313.87	221.882
2313.14	225.259
2312.4	245.697
2311.67	262.717
2310.94	289.965
2310.2	252.399
2309.47	259.179
2308.74	201.172
2308.01	228.413
2307.27	255.644
2306.54	276.051
2305.8	218.079
2305.07	262.334
2304.34	286.136
2303.6	231.596
2302.87	258.801
2302.13	255.354
2301.4	268.93
2300.67	248.464
2299.93	262.036
2299.2	285.811
2298.46	221.128
2297.73	241.5
2296.99	244.862
2296.26	289.026
2295.52	251.582
2294.79	241.344
2294.05	210.717
2293.31	258.256
2292.58	258.214
2291.84	247.981
2291.11	268.32
2290.37	258.088
2289.63	234.279
2288.9	244.425
2288.16	268.145
2287.42	295.252
2286.69	234.127
2285.95	278.193
2285.21	254.403
2284.48	271.319
2283.74	274.666
2283	233.937
2282.26	250.848
2281.53	267.754
2280.79	264.322
2280.05	284.608
2279.31	271.011
2278.57	203.225
2277.84	220.125
2277.1	226.861
2276.36	264.064
2275.62	250.482
2274.88	277.516
2274.14	213.179
2273.4	277.426
2272.67	260.467
2271.93	267.189
2271.19	236.711
2270.45	267.102
2269.71	250.156
2268.97	270.395
2268.23	260.213
2267.49	270.307
2266.75	287.155
2266.01	246.575
2265.27	300.57
2264.53	256.625
2263.79	263.335
2263.05	243.039
2262.31	243
2261.57	313.824
2260.82	273.286
2260.08	269.868
2259.34	273.197
2258.6	232.685
2257.86	262.993
2257.12	269.692
2256.38	222.46
2255.63	259.494
2254.89	245.974
2254.15	286.362
2253.41	272.841
2252.67	286.269
2251.92	313.16
2251.18	276.075
2250.44	262.565
2249.7	275.985
2248.95	238.924
2248.21	285.989
2247.47	265.758
2246.72	299.35
2245.98	289.212
2245.24	275.716
2244.49	255.5
2243.75	289.071
2243	238.613
2242.26	262.095
2241.52	288.93
2240.77	275.446
2240.03	255.25
2239.28	255.208
2238.54	265.239
2237.79	258.482
2237.05	265.153
2236.3	278.533
2235.56	281.843
2234.81	251.604
2234.07	264.98
2233.32	274.998
2232.58	274.953
2231.83	278.261
2231.09	274.863
2230.34	264.764
2229.59	298.23
2228.85	244.576
2228.1	288.083
2227.35	284.687
2226.61	294.687
2225.86	281.246
2225.11	287.895
2224.37	251.03
2223.62	261.029
2222.87	291.1
2222.13	240.871
2221.38	267.591
2220.63	260.859
2219.88	254.129
2219.14	264.117
2218.39	244.018
2217.64	267.373
2216.89	220.547
2216.14	230.534
2215.4	303.988
2214.65	303.938
2213.9	297.21
2213.15	283.805
2212.4	270.406
2211.65	260.348
2210.9	240.282
2210.15	306.977
2209.4	266.893
2208.65	300.206
2207.9	246.795
2207.16	310.111
2206.41	306.726
2205.66	303.343
2204.91	253.3
2204.15	249.926
2203.4	266.544
2202.65	256.507
2201.9	303.095
2201.15	253.093
2200.4	293.007
2199.65	302.947
2198.9	286.254
2198.15	299.52
2197.4	286.161
2196.65	269.479
2195.89	302.699
2195.14	305.975
2194.39	266.022
2193.64	269.303
2192.89	299.177
2192.13	259.244
2191.38	259.202
2190.63	275.772
2189.88	259.117
2189.12	288.968
2188.37	288.921
2187.62	265.631
2186.87	268.907
2186.11	288.779
2185.36	302.007
2184.61	308.594
2183.85	255.46
2183.1	305.175
2182.35	258.693
2181.59	268.599
2180.84	275.186
2180.08	328.18
2179.33	288.354
2178.57	248.54
2177.82	258.439
2177.07	294.838
2176.31	288.165
2175.56	284.806
2174.8	288.071
2174.05	327.751
2173.29	284.666
2172.53	241.596
2171.78	297.809
2171.02	284.526
2170.27	334.098
2169.51	271.204
2168.76	287.693
2168	281.034
2167.24	330.574
2166.49	310.688
2165.73	274.286
2164.97	340.323
2164.22	310.535
2163.46	260.939
2162.7	303.829
2161.95	323.591
2161.19	346.647
2160.43	326.785
2159.67	306.93
2158.92	270.582
2158.16	263.939
2157.4	280.389
2156.64	286.94
2155.88	257.214
2155.13	293.44
2154.37	342.839
2153.61	319.711
2152.85	299.886
2152.09	289.952
2151.33	286.61
2150.57	309.62
2149.82	316.156
2149.06	319.397
2148.3	279.838
2147.54	279.792
2146.78	309.366
2146.02	269.828
2145.26	299.394
2144.5	269.74
2143.74	292.718
2142.98	305.824
2142.22	322.213
2141.46	305.723
2140.7	308.96
2139.94	292.478
2139.17	318.716
2138.41	275.956
2137.65	285.764
2136.89	318.559
2136.13	295.521
2135.37	331.586
2134.61	305.272
2133.84	301.94
2133.08	298.609
2132.32	314.964
2131.56	282.109
2130.8	314.86
2130.03	337.763
2129.27	285.248
2128.51	324.54
2127.75	314.653
2126.98	324.433
2126.22	317.827
2125.46	301.394
2124.69	373.405
2123.93	350.419
2123.17	320.892
2122.4	311.018
2121.64	304.42
2120.88	337.098
2120.11	314.136
2119.35	284.639
2118.58	300.948
2117.82	274.734
2117.05	264.878
2116.29	346.574
2115.53	323.634
2114.76	274.553
2114	385.618
2113.23	323.474
2112.47	326.687
2111.7	297.237
2110.93	280.859
2110.17	333.057
2109.4	277.502
2108.64	283.984
2107.87	323.101
2107.1	313.259
2106.34	277.319
2105.57	274.011
2104.81	316.366
2104.04	286.965
2103.27	322.782
2102.51	339.028
2101.74	322.676
2100.97	303.07
2100.2	348.636
2099.44	335.547
2098.67	338.749
2097.9	341.95
2097.13	338.638
2096.37	322.304
2095.6	289.7
2094.83	322.198
2094.06	338.415
2093.29	335.105
2092.52	302.521
2091.76	341.5
2090.99	321.932
2090.22	338.136
2089.45	344.581
2088.68	295.771
2087.91	380.215
2087.14	295.674
2086.37	334.608
2085.6	321.561
2084.83	337.746
2084.06	295.479
2083.29	340.881
2082.52	344.07
2081.75	337.523
2080.98	256.345
2080.21	304.968
2079.44	311.405
2078.67	334.057
2077.9	321.031
2077.13	308.009
2076.36	333.891
2075.58	337.077
2074.81	298.135
2074.04	278.645
2073.27	323.952
2072.5	314.182
2071.73	297.938
2070.95	330.268
2070.18	346.4
2069.41	359.29
2068.64	307.45
2067.86	333.286
2067.09	339.701
2066.32	307.298
2065.55	365.462
2064.77	297.495
2064	310.379
2063.23	329.723
2062.45	319.972
2061.68	316.688
2060.9	358.638
2060.13	274.587
2059.36	310.071
2058.58	335.855
2057.81	303.511
2057.03	332.515
2056.26	358.283
2055.48	342.087
2054.71	345.257
2053.93	348.426
2053.16	341.918
2052.38	325.735
2051.61	322.457
2050.83	351.42
2050.06	332.021
2049.28	283.621
2048.51	306.132
2047.73	376.963
2046.95	325.359
2046.18	357.513
2045.4	338.132
2044.63	350.955
2043.85	283.293
2043.07	366.933
2042.3	341.127
2041.52	279.935
2040.74	299.191
2039.96	350.607
2039.19	373.061
2038.41	321.551
2037.63	344.003
2036.85	353.589
2036.08	366.386
2035.3	350.259
2034.52	350.201
2033.74	369.417
2032.96	334.026
2032.19	391.773
2031.41	311.44
2030.63	369.172
2029.85	369.111
2029.07	381.886
2028.29	298.4
2027.51	298.35
2026.73	320.753
2025.95	298.251
2025.17	368.744
2024.39	343.036
2023.61	349.39
2022.83	330.102
2022.05	339.661
2021.27	355.623
2020.49	361.971
2019.71	339.492
2018.93	352.244
2018.15	406.615
2017.37	342.524
2016.59	377.674
2015.81	409.613
2015.03	367.95
2014.24	358.292
2013.46	377.424
2012.68	370.965
2011.9	361.311
2011.12	348.464
2010.33	342.013
2009.55	370.719
2008.77	377.048
2007.99	405.739
2007.2	351.369
2006.42	373.667
2005.64	386.378
2004.86	341.616
2004.07	367.097
2003.29	363.844
2002.51	360.593
2001.72	389.248
2000.94	389.183
2000.15	354.034
1999.37	376.298
1998.59	369.859
1997.8	344.294
1997.02	379.298
1996.23	382.422
1995.45	414.221
1994.66	395.038
1993.88	353.564
1993.09	359.875
1992.31	334.341
1991.52	350.204
1990.74	385.16
1989.95	397.827
1989.17	330.937
1988.38	388.15
1987.6	397.629
1986.81	356.216
1986.02	384.776
1985.24	394.251
1984.45	403.722
1983.66	397.298
1982.88	406.766
1982.09	355.861
1981.3	384.393
1980.52	425.62
1979.73	352.508
1978.94	342.923
1978.15	380.962
1977.37	358.68
1976.58	384.009
1975.79	390.292
1975	402.917
1974.22	364.786
1973.43	390.097
1972.64	367.835
1971.85	377.285
1971.06	399.412
1970.27	393.007
1969.48	443.643
1968.69	402.381
1967.91	392.811
1967.12	370.574
1966.33	383.18
1965.54	373.617
1964.75	383.052
1963.96	354.501
1963.17	405.077
1962.38	379.696
1961.59	385.96
1960.8	373.244
1960.01	433.27
1959.22	382.606
1958.43	407.834
1957.63	414.088
1956.84	429.821
1956.05	407.63
1955.26	369.649
1954.47	341.158
1953.68	375.843
1952.89	382.096
1952.09	432.549
1951.3	435.634
1950.51	403.999
1949.72	362.907
1948.93	394.398
1948.13	406.951
1947.34	410.038
1946.55	425.737
1945.76	403.595
1944.96	397.222
1944.17	400.308
1943.38	456.968
1942.58	422.231
1941.79	378.055
1941	393.741
1940.2	440.917
1939.41	421.95
1938.61	440.769
1937.82	424.957
1937.02	409.149
1936.23	415.375
1935.44	449.914
1934.64	443.548
1933.85	443.474
1933.05	427.676
1932.26	399.307
1931.46	443.252
1930.67	446.321
1929.87	436.818
1929.07	455.598
1928.28	433.531
1927.48	439.741
1926.69	417.684
1925.89	455.294
1925.09	404.987
1924.3	477.114
1923.5	386.021
1922.7	404.784
1921.91	382.755
1921.11	370.144
1920.31	423.399
1919.52	439.007
1918.72	413.851
1917.92	373.031
1917.12	429.384
1916.33	404.243
1915.53	404.175
1914.73	397.843
1913.93	466.682
1913.13	454.078
1912.33	466.526
1911.54	428.882
1910.74	453.85
1909.94	406.832
1909.14	431.796
1908.34	409.824
1907.54	484.826
1906.74	437.834
1905.94	390.858
1905.14	462.698
1904.34	431.363
1903.54	453.167
1902.74	421.844
1901.94	424.898
1901.14	443.569
1900.34	449.741
1899.54	396.58
1898.74	427.735
1897.94	440.15
1897.14	418.229
1896.34	483.691
1895.54	480.49
1894.73	461.693
1893.93	430.425
1893.13	498.96
1892.33	467.697
1891.53	473.853
1890.73	464.423
1889.92	420.716
1889.12	501.658
1888.32	448.613
1887.52	429.849
1886.71	482.72
1885.91	485.753
1885.11	466.992
1884.3	445.125
1883.5	466.836
1882.7	488.539
1881.89	429.345
1881.09	469.712
1880.29	478.963
1879.48	516.199
1878.68	478.803
1877.87	444.528
1877.07	435.129
1876.27	478.562
1875.46	456.733
1874.66	506.36
1873.85	472.109
1873.05	503.085
1872.24	493.686
1871.44	496.707
1870.63	462.481
1869.82	508.954
1869.02	487.149
1868.21	527.398
1867.41	468.375
1866.6	477.6
1865.79	505.427
1864.99	511.542
1864.18	464.961
1863.38	477.279
1862.57	443.114
1861.76	474.021
1860.95	477.039
1860.15	464.571
1859.34	458.299
1858.53	526.336
1857.72	482.91
1856.92	501.399
1856.11	513.693
1855.3	525.983
1854.49	482.586
1853.68	473.226
1852.88	541.18
1852.07	494.71
1851.26	466.805
1850.45	488.362
1849.64	513.003
1848.83	478.929
1848.02	540.635
1847.21	484.945
1846.4	531.189
1845.59	524.924
1844.78	546.446
1843.97	496.967
1843.16	530.832
1842.35	533.828
1841.54	552.249
1840.73	502.802
1839.92	518.138
1839.11	524.218
1838.3	490.216
1837.49	483.968
1836.68	576.349
1835.87	502.295
1835.06	545.345
1834.25	520.609
1833.43	502.041
1832.62	514.275
1831.81	483.399
1831	489.474
1830.19	550.951
1829.37	504.697
1828.56	532.304
1827.75	535.291
1826.94	550.58
1826.12	550.487
1825.31	519.646
1824.5	577.971
1823.68	507.176
1822.87	488.651
1822.06	488.569
1821.24	513.065
1820.43	494.548
1819.61	534.39
1818.8	561.936
1817.99	500.438
1817.17	485.006
1816.36	537.099
1815.54	472.568
1814.73	503.169
1813.91	524.558
1813.1	542.872
1812.28	548.913
1811.47	508.962
1810.65	570.187
1809.84	539.441
1809.02	527.092
1808.2	560.707
1807.39	554.486
1806.57	566.644
1805.75	591.048
1804.94	606.258
1804.12	590.848
1803.3	529.531
1802.49	560.046
1801.67	529.353
1800.85	572.094
1800.04	575.056
1799.22	535.202
1798.4	516.765
1797.58	565.594
1796.77	537.988
1795.95	495.11
1795.13	553.085
1794.31	507.163
1793.49	565.117
1792.67	531.426
1791.86	574.087
1791.04	592.309
1790.22	543.367
1789.4	595.161
1788.58	558.442
1787.76	515.632
1786.94	597.91
1786.12	564.259
1785.3	542.817
1784.48	579.313
1783.66	591.41
1782.84	573.022
1782.02	499.786
1781.2	578.922
1780.38	551.406
1779.56	526.946
1778.74	566.447
1777.92	557.217
1777.1	590.611
1776.27	578.336
1775.45	569.108
1774.63	562.926
1773.81	532.408
1772.99	577.945
1772.17	599.136
1771.34	595.994
1770.52	598.934
1769.7	614.031
1768.88	635.202
1768.05	550.01
1767.23	565.108
1766.41	561.975
1765.58	567.955
1764.76	616.445
1763.94	625.45
1763.11	640.522
1762.29	622.203
1761.47	579.613
1760.64	582.549
1759.82	609.753
1758.99	597.517
1758.17	594.384
1757.35	594.283
1756.52	560.836
1755.7	618.33
1754.87	645.5
1754.05	602.971
1753.22	596.81
1752.4	566.419
1751.57	642.035
1750.74	605.591
1749.92	641.817
1749.09	635.655
1748.27	623.442
1747.44	647.543
1746.61	617.18
1745.79	586.826
1744.96	616.971
1744.13	625.938
1743.31	613.738
1742.48	640.84
1741.65	589.352
1740.83	695.015
1740	619.365
1739.17	670.613
1738.34	685.601
1737.51	606.971
1736.69	612.907
1735.86	624.878
1735.03	591.572
1734.2	642.772
1733.37	687.921
1732.54	606.354
1731.72	633.397
1730.89	642.337
1730.06	618.106
1729.23	584.841
1728.4	702.293
1727.57	705.187
1726.74	671.923
1725.91	638.671
1725.08	665.671
1724.25	659.535
1723.42	590.169
1722.59	611.142
1721.76	668.23
1720.93	680.154
1720.1	655.967
1719.27	652.847
1718.43	649.728
1717.6	667.663
1716.77	664.542
1715.94	688.481
1715.11	682.353
1714.28	631.144
1713.45	613.007
1712.61	666.983
1711.78	636.831
1710.95	639.726
1710.12	645.623
1709.28	654.52
1708.45	681.426
1707.62	696.317
1706.78	645.184
1705.95	630.073
1705.12	722.961
1704.28	710.841
1703.45	710.72
1702.62	731.587
1701.78	629.538
1700.95	632.428
1700.11	653.298
1699.28	707.12
1698.45	629.11
1697.61	703.884
1696.78	736.707
1695.94	712.628
1695.11	703.526
1694.27	694.426
1693.44	637.447
1692.6	700.174
1691.76	685.097
1690.93	696.945
1690.09	681.873
1689.26	681.757
1688.42	711.538
1687.58	717.395
1686.75	699.341
1685.91	672.329
1685.07	699.103
1684.24	707.946
1683.4	698.865
1682.56	683.816
1681.73	713.555
1680.89	674.628
1680.05	662.575
1679.21	740.048
1678.37	710.086
1677.54	736.813
1676.7	712.827
1675.86	682.885
1675.02	736.436
1674.18	715.444
1673.34	700.419
1672.51	715.2
1671.67	679.324
1670.83	688.146
1669.99	699.942
1669.15	717.691
1668.31	714.591
1667.47	741.262
1666.63	782.806
1665.79	729.106
1664.95	711.129
1664.11	702.083
1663.27	657.347
1662.43	740.504
1661.59	743.352
1660.75	734.306
1659.9	731.209
1659.06	745.943
1658.22	754.73
1657.38	724.893
1656.54	742.591
1655.7	718.706
1654.85	682.951
1654.01	703.616
1653.17	709.433
1652.33	733.055
1651.49	715.126
1650.64	762.473
1649.8	783.107
1648.96	780.008
1648.11	770.979
1647.27	744.164
1646.43	741.073
1645.58	764.656
1644.74	714.15
1643.9	734.768
1643.05	770.189
1642.21	787.828
1641.36	749.198
1640.52	734.266
1639.68	748.942
1638.83	710.337
1637.99	742.768
1637.14	769.269
1636.3	760.263
1635.45	819.288
1634.61	777.747
1633.76	736.22
1632.91	715.401
1632.07	830.551
1631.22	833.364
1630.38	753.445
1629.53	779.904
1628.68	794.539
1627.84	758.965
1626.99	758.835
1626.14	708.519
1625.3	779.238
1624.45	770.251
1623.6	787.823
1622.75	793.589
1621.91	814.101
1621.06	834.605
1620.21	813.822
1619.36	804.839
1618.52	810.596
1617.67	854.664
1616.82	813.266
1615.97	789.558
1615.12	815.933
1614.27	806.958
1613.42	803.875
1612.57	786.073
1611.72	821.262
1610.88	815.235
1610.03	820.981
1609.18	809.072
1608.33	858.94
1607.48	776.443
1606.63	802.775
1605.78	823.218
1604.93	799.561
1604.07	808.241
1603.22	758.147
1602.37	822.655
1601.52	807.826
1600.67	837.058
1599.82	801.676
1598.97	778.051
1598.12	792.595
1597.26	827.68
1596.41	783.52
1595.56	862.604
1594.71	862.457
1593.86	768.452
1593	853.363
1592.15	841.489
1591.3	809.098
1590.45	794.304
1589.59	829.334
1588.74	791.102
1587.89	773.39
1587.03	825.979
1586.18	799.481
1585.32	828.624
1584.47	848.974
1583.62	822.486
1582.76	784.3
1581.91	909.983
1581.05	863.019
1580.2	830.696
1579.34	871.497
1578.49	792.4
1577.63	792.264
1576.78	789.205
1575.92	867.976
1575.07	847.373
1574.21	762.505
1573.36	841.241
1572.5	832.335
1571.64	805.912
1570.79	872.922
1569.93	811.474
1569.07	831.763
1568.22	825.785
1567.36	767.294
1566.5	828.418
1565.65	784.529
1564.79	819.386
1563.93	804.668
1563.07	856.999
1562.22	827.707
1561.36	772.2
1560.5	798.288
1559.64	821.454
1558.78	835.876
1557.92	797.877
1557.07	887.995
1556.21	739.383
1555.35	849.853
1554.49	785.688
1553.63	808.829
1552.77	794.145
1551.91	826.002
1551.05	770.608
1550.19	860.607
1549.33	764.53
1548.47	746.959
1547.61	816.574
1546.75	877.448
1545.89	822.103
1545.03	763.872
1544.17	824.724
1543.31	879.748
1542.45	859.276
1541.58	821.396
1540.72	774.823
1539.86	844.325
1539	829.675
1538.14	788.926
1537.28	907.688
1536.41	806.051
1535.55	817.508
1534.69	837.657
1533.83	834.614
1532.96	811.291
1532.1	831.43
1531.24	828.39
1530.37	807.976
1529.51	807.837
1528.65	830.858
1527.78	839.398
1526.92	810.314
1526.05	804.387
1525.19	841.857
1524.33	861.96
1523.46	882.055
1522.6	792.267
1521.73	870.187
1520.87	844.023
1520	858.327
1519.14	840.842
1518.27	881.143
1517.41	852.106
1516.54	849.072
1515.67	828.713
1514.81	886.31
1513.94	857.292
1513.08	860.03
1512.21	851.225
1511.34	842.423
1510.48	871.123
1509.61	821.945
1508.74	795.851
1507.88	885.088
1507.01	893.583
1506.14	806.968
1505.27	910.564
1504.41	864.31
1503.54	872.802
1502.67	898.572
1501.8	889.778
1500.93	883.867
1500.06	846.293
1499.2	903.708
1498.33	880.532
1497.46	906.273
1496.59	871.598
1495.72	857.067
1494.85	877.048
1493.98	874.022
1493.11	902.616
1492.24	928.327
1491.37	956.903
1490.5	813.083
1489.63	910.611
1488.76	890.349
1487.89	895.938
1487.02	901.525
1486.15	881.275
1485.28	929.915
1484.41	906.797
1483.54	929.594
1482.66	935.17
1481.79	1012.45
1480.92	980.729
1480.05	951.888
1479.18	1009.06
1478.3	940.095
1477.43	934.201
1476.56	916.848
1475.69	991.171
1474.81	968.086
1473.94	1010.87
1473.07	984.93
1472.19	996.211
1471.32	1004.62
1470.45	1035.93
1469.57	1015.72
1468.7	1032.71
1467.83	1058.27
1466.95	1058.09
1466.08	1023.6
1465.2	1072.02
1464.33	1117.56
1463.45	1077.36
1462.58	1108.61
1461.7	1102.7
1460.83	1093.94
1459.95	1136.59
1459.08	1110.69
1458.2	1110.5
1457.32	1110.31
1456.45	1070.16
1455.57	1081.39
1454.7	1132.55
1453.82	1083.87
1452.94	1137.87
1452.07	1083.49
1451.19	1148.87
1450.31	1108.77
1449.43	1179.82
1448.56	1079.89
1447.68	1173.72
1446.8	1108
1445.92	1087.88
1445.05	1124.7
1444.17	1147.28
1443.29	1164.16
1442.41	1178.19
1441.53	1175.14
1440.65	1169.25
1439.77	1188.95
1438.9	1120.49
1438.02	1120.3
1437.14	1100.21
1436.26	1136.97
1435.38	1060.04
1434.5	1116.68
1433.62	1105.12
1432.74	1028.24
1431.86	1045.1
1430.98	1022.2
1430.1	1056.09
1429.22	987.788
1428.33	1010.32
1427.45	1010.15
1426.57	987.274
1425.69	1018.3
1424.81	975.587
1423.93	1029.29
1423.05	1023.44
1422.16	1040.27
1421.28	957.905
1420.4	954.906
1419.52	1005.73
1418.63	1019.72
1417.75	1013.88
1416.87	965.569
1415.99	1058.83
1415.1	987.878
1414.22	973.556
1413.34	996.024
1412.45	1021.31
1411.57	1055.08
1410.68	1018.13
1409.8	947.261
1408.92	992.331
1408.03	1023.25
1407.15	1008.94
1406.26	1028.55
1405.38	988.816
1404.49	1014.07
1403.61	982.824
1402.72	1047.6
1401.84	985.305
1400.95	968.198
1400.06	1013.19
1399.18	945.287
1398.29	1066.44
1397.41	1026.76
1396.52	984.277
1395.63	1037.68
1394.75	1062.88
1393.86	1062.69
1392.97	1073.78
1392.09	1022.87
1391.2	1028.33
1390.31	1025.33
1389.42	1033.6
1388.54	1067.21
1387.65	982.566
1386.76	982.395
1385.87	1018.81
1384.98	1074.91
1384.09	1018.46
1383.21	1113.92
1382.32	1074.35
1381.43	1110.72
1380.54	1045.86
1379.65	1079.41
1378.76	1059.55
1377.87	1112.75
1376.98	1019.85
1376.09	1117.98
1375.2	1103.75
1374.31	1097.94
1373.42	1120.21
1372.53	1117.21
1371.64	1114.2
1370.75	1111.2
1369.86	1169.93
1368.96	1108.01
1368.07	1107.82
1367.18	1099.21
1366.29	1141.08
1365.4	1152.09
1364.51	1146.28
1363.61	1106.85
1362.72	1067.44
1361.83	1162.49
1360.94	1137.08
1360.04	1159.28
1359.15	1192.68
1358.26	1133.69
1357.36	1231.44
1356.47	1082.92
1355.58	1177.86
1354.68	1146.88
1353.79	1143.88
1352.9	1185.63
1352	1179.83
1351.11	1143.29
1350.21	1123.52
1349.32	1084.21
1348.42	1128.72
1347.53	1176.01
1346.63	1167.42
1345.74	1066.69
1344.84	1217.27
1343.95	1147.27
1343.05	1236.38
1342.15	1222.21
1341.26	1210.84
1340.36	1154.84
1339.47	1216
1338.57	1143.28
1337.67	1151.45
1336.78	1240.45
1335.88	1298.76
1334.98	1159.2
1334.08	1198
1333.19	1186.65
1332.29	1203.16
1331.39	1233.58
1330.49	1208.3
1329.6	1222.01
1328.7	1244.06
1327.8	1202.1
1326.9	1174.07
1326	1179.43
1325.1	1198.69
1324.2	1229.07
1323.3	1181.59
1322.4	1220.3
1321.51	1264.56
1320.61	1228.21
1319.71	1166.87
1318.81	1202.78
1317.91	1172.02
1317.01	1221.8
1316.1	1191.04
1315.2	1249.13
1314.3	1187.85
1313.4	1257.01
1312.5	1176.34
1311.6	1206.64
1310.7	1234.17
1309.8	1222.86
1308.9	1217.1
1307.99	1250.15
1307.09	1208.36
1306.19	1136.1
1305.29	1249.49
1304.38	1227.11
1303.48	1232.44
1302.58	1187.92
1301.68	1184.94
1300.77	1270.54
1299.87	1209.43
1298.97	1137.28
1298.06	1186.88
1297.16	1167.31
1296.25	1153.27
1295.35	1172.43
1294.45	1174.99
1293.54	1144.37
1292.64	1166.28
1291.73	1160.55
1290.83	1226.65
1289.92	1168.43
1289.02	1146.13
1288.11	1201.16
1287.21	1115.36
1286.3	1120.69
1285.39	1112.21
1284.49	1136.85
1283.58	1086.99
1282.68	1067.49
1281.77	1092.13
1280.86	1130.54
1279.96	1055.9
1279.05	1077.77
1278.14	1066.56
1277.23	1025.04
1276.33	1016.59
1275.42	955.813
1274.51	966.662
1273.6	1051.85
1272.7	993.853
1271.79	1059.74
1270.88	1010.02
1269.97	996.081
1269.06	940.883
1268.15	990.23
1267.24	990.056
1266.33	1022.88
1265.43	962.216
1264.52	940.057
1263.61	972.87
1262.7	989.186
1261.79	1027.47
1260.88	977.851
1259.97	1002.4
1259.06	1010.46
1258.14	960.864
1257.23	946.97
1256.32	938.571
1255.41	985.052
1254.5	960.188
1253.59	938.076
1252.68	1020.18
1251.77	954.197
1250.85	918.39
1249.94	964.826
1249.03	923.548
1248.12	934.346
1247.2	915.005
1246.29	914.844
1245.38	920.16
1244.47	950.117
1243.55	859.609
1242.64	897.777
1241.73	892.146
1240.81	954.92
1239.9	842.589
1238.98	831.5
1238.07	935.273
1237.16	921.437
1236.24	913.074
1235.33	880.114
1234.41	945.546
1233.5	909.859
1232.58	896.04
1231.67	884.956
1230.75	909.378
1229.84	917.409
1228.92	903.598
1228	922.545
1227.09	878.719
1226.17	963.146
1225.25	856.585
1224.34	867.344
1223.42	837.194
1222.5	921.569
1221.59	888.694
1220.67	902.165
1219.75	844.779
1218.84	836.457
1217.92	855.378
1217	956.002
1216.08	904.093
1215.16	879.43
1214.25	805.775
1213.33	857.346
1212.41	898.013
1211.49	859.764
1210.57	826.969
1209.65	832.262
1208.73	872.905
1207.81	891.783
1206.89	826.385
1205.97	839.829
1205.05	864.137
1204.13	869.418
1203.21	823.085
1202.29	852.815
1201.37	904.259
1200.45	914.96
1199.53	865.936
1198.61	884.782
1197.69	881.912
1196.77	841.06
1195.84	862.612
1194.92	865.172
1194	837.902
1193.08	883.844
1192.16	807.789
1191.23	834.748
1190.31	883.376
1189.39	829.035
1188.46	891.19
1187.54	907.282
1186.62	852.966
1185.69	798.668
1184.77	887.853
1183.85	882.283
1182.92	865.892
1182	841.39
1181.08	833.126
1180.15	860.024
1179.23	873.392
1178.3	897.569
1177.38	883.895
1176.45	848.605
1175.53	883.582
1174.6	864.514
1173.68	850.856
1172.75	858.807
1171.82	842.454
1170.9	939.494
1169.97	890.742
1169.05	920.27
1168.12	874.237
1167.19	903.758
1166.27	884.717
1165.34	906.135
1164.41	830.476
1163.48	857.288
1162.56	846.355
1161.63	889.324
1160.7	916.11
1159.77	851.293
1158.84	945.414
1157.92	907.545
1156.99	885.844
1156.06	885.687
1155.13	853.231
1154.2	836.933
1153.27	912.122
1152.34	847.397
1151.41	860.695
1150.48	887.434
1149.55	908.787
1148.62	922.067
1147.69	857.397
1146.76	921.74
1145.83	838.285
1144.9	902.609
1143.97	862.161
1143.04	835.154
1142.11	920.923
1141.18	842.911
1140.25	877.653
1139.32	880.181
1138.38	893.44
1137.45	877.186
1136.52	850.21
1135.59	868.83
1134.65	908.892
1133.72	836.354
1132.79	908.57
1131.86	911.088
1130.92	851.984
1129.99	843.797
1129.06	854.36
1128.12	915.797
1127.19	894.216
1126.26	923.502
1125.32	843.048
1124.39	861.629
1123.45	858.801
1122.52	863.998
1121.58	869.193
1120.65	933.214
1119.71	866.211
1118.78	839.327
1117.84	865.903
1116.91	822.996
1115.97	838.879
1115.03	902.837
1114.1	859.946
1113.16	833.092
1112.23	851.632
1111.29	792.757
1110.35	795.285
1109.42	843.173
1108.48	835.019
1107.54	786.859
1106.6	813.388
1105.67	879.902
1104.73	783.773
1103.79	826.281
1102.85	812.809
1101.91	791.349
1100.98	799.2
1100.04	796.394
1099.1	860.166
1098.16	814.749
1097.22	817.266
1096.28	835.752
1095.34	840.925
1094.4	870.043
1093.46	856.587
1092.52	795.261
1091.58	827.03
1090.64	800.295
1089.7	882.56
1088.76	794.695
1087.82	842.386
1086.88	860.834
1085.94	879.275
1085	852.559
1084.06	833.819
1083.11	876.151
1082.17	830.868
1081.23	851.952
1080.29	833.225
1079.35	870.22
1078.4	840.886
1077.46	856.649
1076.52	848.541
1075.57	832.483
1074.63	840.287
1073.69	866.639
1072.74	877.084
1071.8	855.733
1070.86	831.741
1069.91	866.021
1068.97	910.882
1068.02	931.899
1067.08	865.558
1066.14	902.455
1065.19	862.603
1064.25	886.259
1063.3	835.845
1062.36	864.786
1061.41	928.091
1060.46	1012.52
1059.52	903.971
1058.57	922.309
1057.63	916.86
1056.68	908.771
1055.73	942.945
1054.79	963.904
1053.84	937.328
1052.89	942.44
1051.95	955.469
1051	963.215
1050.05	947.213
1049.1	978.699
1048.16	986.437
1047.21	959.89
1046.26	980.812
1045.31	999.089
1044.36	951.469
1043.41	930.218
1042.46	874.723
1041.52	911.445
1040.57	871.776
1039.62	908.486
1038.67	889.894
1037.72	879.206
1036.77	913.263
1035.82	878.891
1034.87	847.163
1033.92	852.272
1032.97	883.68
1032.02	862.486
1031.07	912.284
1030.11	838.52
1029.16	783.179
1028.21	814.571
1027.26	782.899
1026.31	837.92
1025.36	837.77
1024.4	837.62
1023.45	871.599
1022.5	921.315
1021.55	863.414
1020.59	784.543
1019.64	847.364
1018.69	758.032
1017.73	910.001
1016.78	870.507
1015.83	812.678
1014.87	804.669
1013.92	775.698
1012.97	793.9
1012.01	814.715
1011.06	851.238
1010.1	824.898
1009.15	775.004
1008.19	824.603
1007.24	785.195
1006.28	842.625
1005.33	766.599
1004.37	782.157
1003.41	797.71
1002.46	779.262
1001.5	839.256
1000.55	781.597
999.589	823.274
998.633	776.09
997.676	760.275
996.719	856.789
995.761	812.236
994.804	775.534
993.846	848.496
992.889	762.204
991.931	749.018
990.973	832.383
990.014	785.274
989.056	813.826
988.097	803.248
987.139	797.889
986.18	808.173
985.221	779.356
984.261	724.489
983.302	750.415
982.342	797.173
981.382	833.495
980.422	789.074
979.462	752.48
978.502	804.41
977.541	770.429
976.581	835.349
975.62	806.579
974.659	816.84
973.698	785.482
972.736	863.354
971.775	839.799
970.813	803.255
969.851	826.502
968.889	891.319
967.927	862.579
966.964	826.057
966.002	922.005
965.039	843.937
964.076	835.996
963.113	828.059
962.15	877.221
961.186	830.356
960.223	827.612
959.259	806.712
958.295	884.371
957.331	845.317
956.367	832.202
955.402	808.724
954.437	816.353
953.473	751.428
952.508	821.241
951.542	813.322
950.577	820.945
949.611	763.834
948.646	748.163
947.68	776.5
946.714	763.421
945.748	846.081
944.781	711.408
943.815	794.047
942.848	768.044
941.881	770.491
940.914	744.501
939.947	754.706
938.979	777.827
938.012	819.026
937.044	751.715
936.076	805.817
935.108	761.773
934.139	769.381
933.171	813.126
932.202	727.81
931.233	709.616
930.264	768.827
929.295	758.37
928.326	740.181
927.356	781.304
926.387	776.007
925.417	781.022
924.447	765.419
923.476	791.048
922.506	780.6
921.535	749.55
920.565	782.894
919.594	757.004
918.623	803.206
917.651	785.044
916.68	712.846
915.708	769.323
914.737	753.749
913.765	766.473
912.792	822.91
911.82	761.055
910.848	755.776
909.875	809.614
908.902	752.933
907.929	781.059
906.956	850.276
905.982	780.777
905.009	757.525
904.035	839.546
903.061	752.118
902.087	744.283
901.113	792.903
900.138	761.973
899.164	841.353
898.189	746.31
897.214	758.996
896.239	761.422
895.263	763.848
894.288	725.268
893.312	763.572
892.336	758.31
891.36	773.542
890.384	745.232
889.408	842.395
888.431	773.122
887.454	796.018
886.478	752.37
885.5	762.468
884.523	729.075
883.546	751.962
882.568	774.841
881.59	764.474
880.612	759.223
879.634	764.197
878.656	779.391
877.677	774.14
876.699	768.891
875.72	778.968
874.741	789.041
873.762	773.58
872.782	798.966
871.803	793.717
870.823	783.367
869.843	803.635
868.863	823.896
867.883	762.539
866.902	831.247
865.922	739.319
864.941	795.261
863.96	787.472
862.979	782.233
861.997	789.734
861.016	774.308
860.034	809.821
859.052	779.12
858.07	753.522
857.088	789.019
856.105	788.876
855.123	826.897
854.14	819.116
853.157	839.314
852.174	849.334
851.191	854.265
850.207	780.392
849.224	800.583
848.24	815.684
847.256	840.942
846.272	713.782
845.287	800.002
844.303	830.328
843.318	792.096
842.333	791.952
841.348	809.573
840.363	794.202
839.377	761.078
838.392	715.284
837.406	819.13
836.42	722.631
835.434	780.806
834.447	785.734
833.461	724.771
832.474	757.578
831.487	737.174
830.5	764.901
829.513	711.584
828.525	686.136
827.538	736.639
826.55	721.32
825.562	721.189
824.574	776.718
823.586	708.279
822.597	781.494
821.609	670.092
820.62	748.344
819.631	717.875
818.641	730.381
817.652	735.302
816.662	740.221
815.673	702.198
814.683	674.291
813.693	734.768
812.702	686.668
811.712	729.452
810.721	681.371
809.73	724.141
808.739	729.054
807.748	728.922
806.757	665.745
805.765	758.912
804.774	660.461
803.782	718.31
802.79	740.859
801.797	685.296
800.805	717.918
799.812	707.713
798.819	674.849
797.826	720.044
796.833	740.05
795.84	682.031
794.846	697.004
793.853	664.172
792.859	691.72
791.865	651.356
790.87	699.011
789.876	736.594
788.881	683.676
787.887	660.934
786.892	695.99
785.896	638.084
784.901	675.643
783.906	708.165
782.91	697.993
781.914	662.722
780.918	670.131
779.922	622.33
778.925	765.226
777.929	647.188
776.932	677.166
775.935	664.505
774.938	676.919
773.94	681.809
772.943	734.315
771.945	661.515
770.947	693.963
769.949	668.788
768.951	628.596
767.952	693.583
766.954	658.408
765.955	700.839
764.956	740.752
763.957	698.081
762.957	717.967
761.958	692.824
760.958	717.705
759.958	717.574
758.958	677.446
757.958	714.813
756.957	699.689
755.957	704.558
754.956	631.988
753.955	691.813
752.954	709.166
751.952	706.54
750.951	701.419
749.949	721.256
748.947	723.62
747.945	691.055
746.943	743.31
745.941	700.778
744.938	740.545
743.935	717.973
742.932	702.887
741.929	755.091
740.925	727.546
739.922	709.975
738.918	702.373
737.914	687.303
736.91	746.932
735.906	701.988
734.901	691.904
733.897	724.127
732.892	669.259
731.887	703.962
730.882	718.755
729.876	688.785
728.871	693.631
727.865	730.789
726.859	728.17
725.853	698.22
724.847	670.765
723.84	710.384
722.833	707.77
721.826	722.538
720.819	754.679
719.812	734.684
718.805	704.771
717.797	692.236
716.789	751.645
715.781	758.949
714.773	736.492
713.765	706.605
712.756	706.476
711.748	703.868
710.739	726.04
709.73	730.862
708.72	710.912
707.711	725.641
706.701	718.08
705.691	740.23
704.681	740.094
703.671	749.857
702.661	754.669
701.65	727.318
700.64	722.238
699.629	667.7
698.618	776.368
697.606	736.673
696.595	736.538
695.583	724.047
694.571	768.387
693.559	689.198
692.547	777.984
691.535	777.841
690.522	693.756
689.509	772.619
688.496	720.65
687.483	777.27
686.47	715.451
685.456	737.519
684.442	692.993
683.429	747.111
682.414	697.669
681.4	707.4
680.386	712.199
679.371	736.707
678.356	714.401
677.341	714.27
676.326	696.901
675.311	741.091
674.295	689.26
673.279	696.517
672.263	686.546
671.247	730.705
670.231	735.49
669.214	742.733
668.198	747.515
667.181	749.836
666.164	752.156
665.146	717.612
664.129	665.88
663.111	741.915
662.093	741.778
661.075	702.35
660.057	746.416
659.039	729.095
658.02	758.414
657.001	795.084
655.983	763.042
654.963	704.028
653.944	730.877
652.925	769.977
651.905	772.287
650.885	804.012
649.865	700.93
648.845	735.106
647.824	781.519
646.804	781.375
645.783	805.721
644.762	722.322
643.741	795.632
642.719	797.933
641.698	729.265
640.676	782.959
639.654	760.798
638.632	777.779
637.609	777.636
636.587	779.938
635.564	799.35
634.541	833.419
633.518	777.063
632.495	774.477
631.471	832.959
630.448	796.171
629.424	803.35
628.4	798.319
627.376	832.345
626.351	822.43
625.327	795.438
624.302	814.808
623.277	795.145
622.252	799.875
621.226	897.256
620.201	775.203
619.175	892.05
618.149	865.08
617.123	857.612
616.097	874.505
615.07	781.795
614.044	883.923
613.017	825.329
611.99	886.031
610.963	810.422
609.935	798.107
608.908	819.855
607.88	875.647
606.852	897.373
605.824	841.284
604.795	855.715
603.767	862.848
602.738	904.001
601.709	886.826
600.68	859.941
599.65	842.781
598.621	920.331
597.591	825.475
596.561	861.733
595.531	866.428
594.501	897.813
593.47	856.404
592.44	907.184
591.409	914.291
590.378	894.725
589.347	850.922
588.315	831.374
587.284	867.571
586.252	877.103
585.22	908.433
584.188	879.2
583.155	862.087
582.123	878.875
581.09	902.92
580.057	859.188
579.024	829.992
577.99	890.322
576.957	858.712
575.923	824.694
574.889	892.246
573.855	834.059
572.821	862.911
571.786	860.334
570.752	884.337
569.717	872.095
568.682	869.518
567.647	886.261
566.611	886.097
565.576	864.207
564.54	890.596
563.504	890.431
562.467	851.664
561.431	909.399
560.394	865.819
559.358	899.417
558.321	853.444
557.284	872.569
556.246	886.867
555.209	881.884
554.171	869.675
553.133	874.331
552.095	905.475
551.057	898.084
550.018	893.103
548.979	897.751
547.94	871.115
546.901	866.141
545.862	918.902
544.823	901.896
543.783	856.041
542.743	908.774
541.703	824.475
540.663	891.614
539.622	891.449
538.582	898.49
537.541	924.745
536.5	934.179
535.459	854.772
534.417	864.215
533.376	876.056
532.334	847.097
531.292	851.738
530.25	940.336
529.207	892.194
528.165	853.662
527.122	846.311
526.079	975.593
525.036	903.515
523.992	922.516
522.949	907.97
521.905	934.15
520.861	878.895
519.817	909.859
518.773	900.114
517.728	885.586
516.684	906.959
515.639	925.931
514.594	906.622
513.548	913.628
512.503	915.85
511.457	949.151
510.411	905.948
509.365	886.66
508.319	924.727
507.273	883.941
506.226	900.497
505.179	869.284
504.132	869.122
503.085	892.833
502.037	861.638
500.99	913.978
499.942	906.65
498.894	906.482
497.846	915.853
496.797	920.452
495.749	896.439
494.7	850.982
493.651	855.59
492.602	886.408
491.552	933.89
490.503	821.765
489.453	890.676
488.403	892.891
487.353	868.918
486.303	902.079
485.252	901.911
484.201	923.156
483.15	953.909
482.099	889.515
481.048	894.105
479.996	879.674
478.945	957.953
477.893	974.41
476.841	893.439
475.788	990.677
474.736	961.989
473.683	897.689
472.63	961.631
471.577	959.077
470.524	966.019
469.47	942.108
468.417	918.206
467.363	937.013
466.309	906.005
465.254	922.435
464.2	943.601
463.145	922.091
462.09	947.989
461.035	914.639
459.98	928.683
458.925	952.196
457.869	933.072
456.813	954.208
455.757	965.867
454.701	1013.02
453.644	979.705
452.588	906.176
451.531	922.566
450.474	960.235
449.417	981.338
448.359	914.956
447.302	985.699
446.244	952.428
445.186	1001.87
444.128	937.898
443.069	994.411
442.011	939.909
440.952	894.872
439.893	1015.1
438.834	958.264
437.774	922.688
436.715	1002.73
435.655	943.573
434.595	1007.08
433.535	1011.6
432.474	980.766
431.414	975.868
430.353	947.405
429.292	933.09
428.231	1003.59
427.169	935.097
426.108	977.311
425.046	998.319
423.984	943.988
422.922	1030.9
421.859	990.699
420.797	1004.63
419.734	947.987
418.671	987.791
417.608	971.146
416.544	926.295
415.481	954.329
414.417	1010.55
413.353	1012.71
412.289	1017.22
411.225	1026.43
410.16	960.481
409.095	1019
408.03	941.341
406.965	976.371
405.9	999.654
404.834	954.889
403.768	1013.35
402.702	1043.65
401.636	1080.97
400.57	994.029
399.503	1007.91
398.436	988.969
397.37	979.412
396.302	930.032
395.235	1009.49
394.167	974.177
393.1	934.192
392.032	1029.99
390.964	1036.82
389.895	971.107
388.827	961.566
387.758	1017.53
386.689	954.19
385.62	961.025
384.55	958.507
383.481	1047.15
382.411	892.713
381.341	955.631
380.271	976.477
379.2	994.978
378.13	1001.8
377.059	980.596
375.988	959.403
374.917	947.554
373.846	940.376
372.774	1014.86
371.702	942.355
370.63	986.489
369.558	946.665
368.486	897.531
367.413	981.271
366.34	997.4
365.267	987.892
364.194	936.458
363.121	1006.15
362.047	1008.29
360.973	921.961
359.899	1040.5
358.825	1037.98
357.751	933.076
356.676	970.123
355.601	962.963
354.526	1011.62
353.451	981.202
352.376	1041.46
351.3	978.508
350.224	962.058
349.148	992.081
348.072	1005.83
346.996	931.322
345.919	982.233
344.842	961.153
343.765	991.148
342.688	963.112
341.61	969.892
340.533	1025.39
339.455	1034.47
338.377	948.473
337.299	1001.62
336.22	1026.93
335.141	959.526
334.063	991.787
332.984	1077.32
331.904	1037.74
330.825	972.699
329.745	1028.09
328.665	949.182
327.585	1039.27
326.505	999.737
325.424	950.96
324.344	985.48
323.263	1056.99
322.182	1008.23
321.1	987.235
320.019	1037.9
318.937	1019.22
317.855	1081.42
316.773	1028.08
315.691	1032.5
314.608	1032.31
313.526	1022.88
312.443	1052.7
311.359	992.486
310.276	1029.22
309.193	982.882
308.109	1024.22
307.025	977.899
305.941	1033.06
304.856	1030.56
303.772	1028.06
302.687	1025.56
301.602	1002.32
300.517	1038.99
299.431	1043.4
298.346	1059.33
297.26	1022.29
296.174	1015.19
295.088	989.68
294.001	1111.45
292.915	991.607
291.828	1030.52
290.741	1057.93
289.654	1080.72
288.566	1029.94
287.479	1029.75
286.391	1077.81
285.303	1073.01
284.214	1114.16
283.126	1040.45
282.037	1033.37
280.948	1014.8
279.859	1042.16
278.77	1060.32
277.681	1044.06
276.591	1039.27
275.501	1059.72
274.411	1096.21
273.321	1098.3
272.23	994.93
271.139	1120.8
270.048	1125.17
268.957	1053.94
267.866	1124.75
266.774	1103.92
265.682	1089.97
264.59	1025.66
263.498	1105.59
262.406	1144.28
261.313	1105.17
260.221	1109.53
259.128	1047.57
258.034	1104.54
256.941	1152.34
255.847	1108.69
254.753	1154.19
253.659	1101.42
252.565	1149.19
251.471	1160.39
250.376	1114.49
249.281	1141.68
248.186	1141.47
247.091	1120.71
245.995	1104.52
244.9	1181.89
243.804	1163.41
242.708	1124.42
241.611	1174.38
240.515	1167.31
239.418	1157.97
238.321	1137.24
237.224	1219.06
236.126	1218.83
235.029	1227.71
233.931	1193.31
232.833	1227.24
231.735	1181.48
230.636	1142.56
229.538	1201.51
228.439	1135.3
227.34	1176.03
226.241	1148.52
225.141	1189.23
224.042	1277.67
222.942	1286.52
221.842	1186.28
220.741	1251.95
219.641	1219.91
218.54	1149.26
217.439	1233.07
216.338	1257.81
215.237	1212.17
214.135	1300.45
213.034	1250.28
211.932	1245.51
210.829	1290.64
209.727	1258.64
208.624	1272.01
207.522	1285.37
206.419	1266.99
205.315	1316.6
204.212	1241.59
203.108	1266.27
202.005	1275.09
200.9	1304.28
199.796	1347.05
198.692	1290.21
197.587	1287.7
196.482	1287.45
195.377	1278.16
194.272	1352.55
193.166	1311.59
192.06	1333.95
190.955	1288.49
189.848	1331.18
188.742	1290.26
187.635	1328.42
186.529	1384.64
185.422	1393.41
184.314	1366.05
183.207	1289.03
182.099	1376.81
180.992	1374.29
179.883	1374.03
178.775	1486.56
177.667	1407.34
176.558	1377.76
175.449	1314.37
174.34	1352.44
173.231	1491.9
172.121	1385.72
171.011	1435.02
169.901	1364.92
168.791	1441.22
167.681	1398.17
166.57	1420.42
165.46	1426.9
164.349	1381.62
163.237	1442.1
162.126	1387.84
161.014	1455.05
159.902	1452.52
158.79	1463.48
157.678	1487.93
156.565	1494.39
155.453	1467.14
154.34	1491.57
153.227	1509.25
152.113	1556.12
151	1549.09
149.886	1499.41
148.772	1584.4
147.658	1584.1
146.543	1556.88
145.429	1601.44
144.314	1513.68
143.199	1674.82
142.084	1573.62
140.968	1636.08
139.853	1606.63
138.737	1693.7
137.621	1677.7
136.504	1661.7
135.388	1668.1
134.271	1690.17
133.154	1723.42
132.037	1763.37
130.919	1693.67
129.802	1816.38
128.684	1708.68
127.566	1768.73
126.448	1808.63
125.329	1761.35
124.211	1807.94
123.092	1896.97
121.973	1829.59
120.853	1920.81
119.734	1853.45
118.614	1908.92
117.494	1915.25
116.374	1959.52
115.253	1965.84
114.133	1945.38
113.012	1873.63
111.891	1904.5
110.77	1946.5
109.648	1897.08
108.527	1872.2
107.405	1907.5
106.283	1873.71
105.16	1839.94
104.038	1761.64
102.915	1763.53
101.792	1656.33
100.669	1664.92
