3201.25	25.2676
3200.65	33.6901
3200.06	63.1595
3199.47	25.26
3198.87	12.6281
3198.28	29.4611
3197.68	46.289
3197.09	50.4894
3196.5	16.8273
3195.9	12.6185
3195.31	58.8776
3194.71	29.4344
3194.12	33.6342
3193.52	42.0364
3192.93	50.436
3192.33	46.226
3191.74	29.4121
3191.14	42.011
3190.55	12.6014
3189.95	33.5986
3189.36	33.5935
3188.76	33.5885
3188.17	8.39585
3187.57	12.5919
3186.97	62.9498
3186.38	41.9602
3185.78	41.9539
3185.19	29.3633
3184.59	16.7765
3183.99	20.9674
3183.4	37.7356
3182.8	58.691
3182.21	37.7242
3181.61	12.5728
3181.01	50.2837
3180.42	16.7587
3179.82	-12.5671
3179.22	8.37682
3178.63	41.8778
3178.03	54.4329
3177.43	29.3056
3176.83	33.487
3176.24	41.8524
3175.64	62.7692
3175.04	29.2878
3174.44	41.8334
3173.85	33.4617
3173.25	25.0925
3172.65	50.1773
3172.05	45.9889
3171.45	-8.36036
3170.86	37.6159
3170.26	29.2524
3169.66	41.7828
3169.06	41.7765
3168.46	41.7702
3167.86	50.1166
3167.27	37.5818
3166.67	8.35024
3166.07	50.0938
3165.47	37.5647
3164.87	20.8661
3164.27	54.2437
3163.67	37.5476
3163.07	25.028
3162.47	20.8535
3161.87	54.2108
3161.27	29.186
3160.67	20.844
3160.07	37.5135
3159.47	20.8377
3158.87	16.6676
3158.27	74.9929
3157.67	45.8221
3157.07	12.495
3156.47	45.8082
3155.87	45.8012
3155.27	45.7943
3154.67	33.2999
3154.07	33.2948
3153.47	49.9347
3152.87	33.2847
3152.27	37.4397
3151.67	41.5933
3151.07	20.7935
3150.46	49.8968
3149.86	24.9446
3149.26	45.7249
3148.66	33.2494
3148.06	16.6222
3147.46	16.6197
3146.86	24.9257
3146.25	16.6146
3145.65	53.9894
3145.05	53.9812
3144.45	49.8212
3143.85	41.5114
3143.24	70.5587
3142.64	8.29976
3142.04	33.194
3141.44	16.5945
3140.83	49.7759
3140.23	33.1789
3139.63	53.9075
3139.02	20.7305
3138.42	16.5819
3137.82	12.4345
3137.21	33.1537
3136.61	24.8615
3136.01	49.7155
3135.4	57.9926
3134.8	37.2753
3134.2	53.8339
3133.59	24.8427
3132.99	28.9787
3132.39	45.531
3131.78	49.6627
3131.18	41.3793
3130.57	12.4119
3129.97	45.5034
3129.36	33.0883
3128.76	45.4896
3128.15	28.9435
3127.55	24.805
3126.95	41.3353
3126.34	41.329
3125.74	37.1905
3125.13	74.3697
3124.53	82.6204
3123.92	28.9127
3123.31	20.6488
3122.71	49.5496
3122.1	16.514
3121.5	28.8952
3120.89	37.1453
3120.29	16.5065
3119.68	53.638
3119.07	20.6269
3118.47	28.8732
3117.86	45.3653
3117.26	16.494
3116.65	20.6143
3116.04	20.6112
3115.44	20.6081
3114.83	24.7259
3114.22	53.5647
3113.62	28.8381
3113.01	41.1911
3112.4	45.3033
3111.8	45.2964
3111.19	57.6412
3110.58	41.166
3109.97	74.0875
3109.37	24.6921
3108.76	37.0325
3108.15	32.9128
3107.54	28.7943
3106.93	49.3541
3106.33	45.2344
3105.72	49.3391
3105.11	28.7768
3104.5	28.7724
3103.89	20.5486
3103.29	20.5455
3102.68	32.8677
3102.07	57.5098
3101.46	57.501
3100.85	53.3857
3100.24	32.8477
3099.63	12.316
3099.02	49.2566
3098.42	16.4164
3097.81	61.552
3097.2	12.3085
3096.59	28.7155
3095.98	28.7111
3095.37	53.3126
3094.76	28.7024
3094.15	57.396
3093.54	45.09
3092.93	16.3939
3092.32	49.1741
3091.71	57.3611
3091.1	24.5796
3090.49	32.7678
3089.88	28.6674
3089.27	45.042
3088.66	36.8469
3088.05	69.5891
3087.43	20.4643
3086.82	16.3689
3086.21	32.7328
3085.6	49.0918
3084.99	16.3614
3084.38	24.5384
3083.77	49.0693
3083.16	49.0619
3082.54	32.7029
3081.93	24.5235
3081.32	8.17324
3080.71	28.602
3080.1	49.0245
3079.49	44.9323
3078.87	49.0095
3078.26	65.3361
3077.65	20.4144
3077.04	4.08226
3076.42	40.8164
3075.81	57.1342
3075.2	24.4824
3074.59	16.3191
3073.97	28.554
3073.36	28.5497
3072.75	20.3895
3072.13	40.7728
3071.52	4.07666
3070.91	8.15207
3070.29	32.6033
3069.68	61.1219
3069.07	40.7417
3068.45	36.6619
3067.84	28.5105
3067.23	32.5785
3066.61	24.4301
3066	16.2843
3065.38	36.634
3064.77	69.187
3064.15	12.2076
3063.54	52.8915
3062.93	20.3398
3062.31	16.2693
3061.7	28.467
3061.08	24.3966
3060.47	32.5238
3059.85	52.8431
3059.24	36.5781
3058.62	12.1908
3058.01	28.4409
3057.39	60.9355
3056.77	52.8027
3056.16	32.489
3055.54	44.6656
3054.93	44.6588
3054.31	36.5334
3053.7	36.5278
3053.08	40.5803
3052.46	12.1722
3051.85	28.3975
3051.23	24.337
3050.61	8.1111
3050	60.8239
3049.38	28.3802
3048.76	-16.2148
3048.15	32.4246
3047.53	32.4196
3046.91	32.4146
3046.3	48.6145
3045.68	40.5059
3045.06	44.5497
3044.44	24.2961
3043.83	24.2924
3043.21	48.5774
3042.59	24.285
3041.97	40.4688
3041.36	36.4163
3040.74	12.1369
3040.12	24.2701
3039.5	40.444
3038.88	40.4378
3038.27	48.518
3037.65	56.5956
3037.03	52.5451
3036.41	20.2065
3035.79	36.3662
3035.17	68.6812
3034.55	4.03945
3033.93	8.07767
3033.32	72.6879
3032.7	12.1128
3032.08	44.4068
3031.46	16.1455
3030.84	44.3932
3030.22	20.1756
3029.6	44.3796
3028.98	36.305
3028.36	28.2329
3027.74	28.2286
3027.12	40.3204
3026.5	24.1885
3025.88	44.3389
3025.26	52.3925
3024.64	48.3549
3024.02	24.1737
3023.4	44.3117
3022.78	84.5822
3022.16	64.4337
3021.54	48.3179
3020.91	52.3363
3020.29	8.05051
3019.67	44.271
3019.05	40.2402
3018.43	52.3043
3017.81	68.3874
3017.19	36.1996
3016.56	52.2802
3015.94	68.356
3015.32	32.1626
3014.7	28.138
3014.08	44.21
3013.45	56.2587
3012.83	68.3036
3012.21	28.1207
3011.59	8.03326
3010.97	24.0961
3010.34	4.0154
3009.72	8.02956
3009.1	44.1558
3008.47	28.0949
3007.85	44.1423
3007.23	32.0986
3006.61	56.1639
3005.98	52.1442
3005.36	40.1047
3004.74	52.1282
3004.11	44.1017
3003.49	52.1122
3002.86	36.0721
3002.24	60.111
3001.62	40.0678
3000.99	64.0987
3000.37	28.0389
2999.74	72.0889
2999.12	84.0908
2998.5	44.0408
2997.87	40.031
2997.25	-4.00248
2996.62	64.0299
2996	28.0088
2995.37	64.0102
2994.75	40.0003
2994.12	23.9965
2993.5	39.988
2992.87	35.9837
2992.25	67.9587
2991.62	71.9452
2990.99	71.9342
2990.37	59.9359
2989.74	63.9219
2989.12	43.9395
2988.49	35.945
2987.87	43.926
2987.24	51.9046
2986.61	63.8728
2985.99	39.9144
2985.36	59.8623
2984.73	71.8238
2984.11	35.9064
2983.48	59.8348
2982.85	83.7558
2982.23	99.694
2981.6	19.9357
2980.97	15.9461
2980.35	75.7325
2979.72	51.809
2979.09	51.801
2978.46	35.8568
2977.84	39.8347
2977.21	87.6229
2976.58	47.787
2975.95	47.7796
2975.32	47.7723
2974.7	39.8041
2974.07	59.697
2973.44	63.667
2972.81	55.7
2972.18	35.8017
2971.55	75.5697
2970.93	59.6511
2970.3	75.5464
2969.67	55.6572
2969.04	35.7741
2968.41	55.6401
2967.78	55.6316
2967.15	31.7846
2966.52	59.5869
2965.89	43.6903
2965.26	43.6836
2964.63	71.4713
2964	75.4303
2963.37	71.4493
2962.74	67.4695
2962.11	59.5228
2961.48	91.2542
2960.85	59.5044
2960.22	35.6972
2959.59	35.6917
2958.96	23.7908
2958.33	39.6452
2957.7	11.8917
2957.07	67.3761
2956.44	67.3657
2955.81	59.4312
2955.18	35.6532
2954.55	43.5695
2953.92	79.205
2953.28	51.4753
2952.65	59.3855
2952.02	47.501
2951.39	55.4094
2950.76	75.1868
2950.13	102.871
2949.49	51.4278
2948.86	63.286
2948.23	43.5024
2947.6	59.3123
2946.96	67.2103
2946.33	55.3411
2945.7	55.3326
2945.07	71.1309
2944.43	79.0222
2943.8	71.109
2943.17	63.1983
2942.54	90.8335
2941.9	35.5381
2941.27	67.1171
2940.64	39.4746
2940	31.5748
2939.37	47.3549
2938.74	102.586
2938.1	71.0104
2937.47	31.5553
2936.83	78.8761
2936.2	82.8072
2935.57	70.9666
2934.93	43.3618
2934.3	90.6516
2933.66	55.1707
2933.03	86.6835
2932.39	74.8515
2931.76	63.0231
2931.12	78.7667
2930.49	110.256
2929.85	102.365
2929.22	78.7303
2928.58	74.7822
2927.95	70.8354
2927.31	86.5632
2926.68	55.0772
2926.04	62.9356
2925.41	55.0602
2924.77	90.442
2924.14	82.5648
2923.5	55.0347
2922.86	66.8175
2922.23	98.2459
2921.59	43.2215
2920.95	78.5724
2920.32	90.3444
2919.68	62.8385
2919.04	78.5361
2918.41	70.6715
2917.77	74.5862
2917.13	74.5747
2916.5	70.6388
2915.86	54.9328
2915.22	70.617
2914.59	70.6061
2913.95	86.283
2913.31	82.3483
2912.67	58.8111
2912.04	78.4027
2911.4	82.3101
2910.76	109.73
2910.12	70.5297
2909.48	82.272
2908.85	47.0053
2908.21	46.998
2907.57	90.0656
2906.93	74.3906
2906.29	70.4644
2905.65	54.7972
2905.01	117.404
2904.37	89.9961
2903.74	89.9821
2903.1	86.0566
2902.46	78.2212
2901.82	74.2986
2901.18	74.2871
2900.54	43.0017
2899.9	89.8987
2899.26	62.5286
2898.62	101.593
2897.98	89.857
2897.34	74.2182
2896.7	58.5843
2896.06	70.2902
2895.42	93.7058
2894.78	46.8457
2894.14	93.6768
2893.5	78.0519
2892.86	58.5299
2892.22	54.6195
2891.58	85.8173
2890.93	78.0036
2890.29	101.389
2889.65	97.4744
2889.01	70.1707
2888.37	81.8531
2887.73	38.9717
2887.09	62.345
2886.44	93.503
2885.8	85.6978
2885.16	77.895
2884.52	73.9888
2883.88	62.2967
2883.24	105.109
2882.59	85.6315
2881.95	66.1595
2881.31	50.5848
2880.67	46.6864
2880.02	89.4684
2879.38	93.3439
2878.74	81.6632
2878.09	93.3149
2877.45	85.5254
2876.81	54.4168
2876.16	93.2716
2875.52	62.1714
2874.88	69.932
2874.23	81.5747
2873.59	73.7942
2872.95	54.3663
2872.3	73.7714
2871.66	58.2315
2871.01	89.2745
2870.37	89.2607
2869.73	42.6833
2869.08	89.233
2868.44	27.1537
2867.79	69.8129
2867.15	58.1684
2866.5	108.564
2865.86	58.1503
2865.21	143.415
2864.57	116.265
2863.92	158.87
2863.28	154.971
2862.63	112.337
2861.99	69.7155
2861.34	81.3221
2860.7	69.6939
2860.05	58.0692
2859.4	54.1895
2858.76	81.2717
2858.11	73.5201
2857.47	73.5087
2856.82	69.629
2856.17	88.9566
2855.53	50.272
2854.88	77.3296
2854.23	73.4517
2853.59	50.2486
2852.94	77.2936
2852.29	92.7379
2851.65	92.7235
2851	73.3947
2850.35	73.3833
2849.7	50.2018
2849.06	73.3605
2848.41	84.9306
2847.76	73.3377
2847.11	50.1707
2846.47	96.467
2845.82	54.0132
2845.17	84.8646
2844.52	50.1395
2843.87	73.2694
2843.22	84.8251
2842.58	61.6814
2841.93	92.5077
2841.28	50.1006
2840.63	65.5059
2839.98	77.0538
2839.33	65.4856
2838.68	65.4754
2838.03	57.7634
2837.38	42.3533
2836.73	61.5952
2836.09	57.7365
2835.44	53.879
2834.79	38.479
2834.14	69.2515
2833.49	57.7006
2832.84	103.845
2832.19	34.6096
2831.54	65.3635
2830.89	57.6647
2830.24	57.6558
2829.58	49.9606
2828.93	34.5827
2828.28	76.8385
2827.63	46.0959
2826.98	26.8851
2826.33	57.602
2825.68	46.0744
2825.03	57.5841
2824.38	46.0601
2823.73	46.0529
2823.07	76.7429
2822.42	46.0386
2821.77	57.5393
2821.12	53.695
2820.47	80.5299
2819.81	65.1808
2819.16	53.6699
2818.51	76.6594
2817.86	61.318
2817.21	42.1495
2816.55	57.4677
2815.9	34.4752
2815.25	68.9398
2814.6	49.7821
2813.94	72.7471
2813.29	45.9384
2812.64	68.8968
2811.98	34.4431
2811.33	34.4377
2810.68	22.9549
2810.02	80.3296
2809.37	53.5447
2808.71	45.8883
2808.06	61.1749
2807.41	76.4567
2806.75	72.6226
2806.1	68.7896
2805.44	72.5999
2804.79	57.3068
2804.14	61.1177
2803.48	26.7348
2802.83	11.456
2802.17	87.8157
2801.52	34.3573
2800.86	64.887
2800.21	45.7955
2799.55	57.2354
2798.9	41.9661
2798.24	57.2175
2797.59	83.906
2796.93	72.453
2796.27	76.2544
2795.62	34.3091
2794.96	38.1153
2794.31	60.975
2793.65	72.3965
2792.99	53.3365
2792.34	57.1373
2791.68	64.7455
2791.02	87.5832
2790.37	57.1106
2789.71	76.1355
2789.05	53.2866
2788.4	60.8894
2787.74	49.4649
2787.08	49.4572
2786.43	79.88
2785.77	38.0321
2785.11	64.6446
2784.45	41.8223
2783.8	79.8301
2783.14	41.8093
2782.48	38.0025
2781.82	53.1952
2781.16	53.1869
2780.51	26.5893
2779.85	45.5745
2779.19	87.3375
2778.53	60.747
2777.87	64.5336
2777.21	60.7281
2776.56	49.3339
2775.9	45.5318
2775.24	60.6996
2774.58	64.4833
2773.92	41.718
2773.26	60.6712
2772.6	18.9568
2771.94	60.6522
2771.28	60.6428
2770.62	56.8437
2769.96	49.2568
2769.3	53.0375
2768.64	64.3927
2767.98	53.021
2767.32	49.2261
2766.66	26.5022
2766	68.1379
2765.34	90.8363
2764.68	52.9795
2764.02	30.2693
2763.36	41.6138
2762.7	52.9547
2762.04	75.6378
2761.38	64.282
2760.71	68.0527
2760.05	52.9216
2759.39	64.2519
2758.73	68.0208
2758.07	60.4535
2757.41	56.6662
2756.74	37.7716
2756.08	71.7548
2755.42	41.5358
2754.76	56.6308
2754.1	75.4959
2753.43	45.2905
2752.77	52.8306
2752.11	33.9572
2751.45	52.8141
2750.78	71.665
2750.12	71.6538
2749.46	52.7893
2748.79	56.5511
2748.13	52.7728
2747.47	30.1511
2746.8	48.9879
2746.14	71.5866
2745.48	37.6712
2744.81	60.2645
2744.15	79.0848
2743.48	75.3071
2742.82	82.8248
2742.16	41.4059
2741.49	37.6359
2740.83	60.208
2740.16	75.2482
2739.5	52.6655
2738.83	37.6123
2738.17	60.1702
2737.5	63.9209
2736.84	67.6703
2736.17	48.8653
2735.51	26.308
2734.84	101.458
2734.18	52.5995
2733.51	75.1304
2732.85	45.0711
2732.18	45.0641
2731.52	41.3023
2730.85	56.3125
2730.18	63.8108
2729.52	71.3067
2728.85	63.7908
2728.19	82.5398
2727.52	52.5171
2726.85	60.0101
2726.19	71.2509
2725.52	63.7408
2724.85	59.9819
2724.19	67.4691
2723.52	52.4677
2722.85	112.413
2722.18	71.1839
2721.52	44.9512
2720.85	63.6708
2720.18	56.1713
2719.51	52.4184
2718.85	52.4101
2718.18	44.9159
2717.51	59.8785
2716.84	67.3528
2716.17	56.1185
2715.5	44.8877
2714.84	74.8012
2714.17	44.8737
2713.5	71.0388
2712.83	74.766
2712.16	67.2788
2711.49	48.5826
2710.82	48.575
2710.15	29.8876
2709.49	67.2366
2708.82	48.5521
2708.15	89.6206
2707.48	52.2705
2706.81	37.3302
2706.14	67.1838
2705.47	48.514
2704.8	44.7751
2704.13	85.8055
2703.46	70.8717
2702.79	63.4016
2702.12	37.2892
2701.45	44.74
2700.77	63.3717
2700.1	55.9074
2699.43	59.6252
2698.76	81.9718
2698.09	55.8811
2697.42	40.973
2696.75	40.9666
2696.08	59.5784
2695.41	67.0151
2694.73	81.8945
2694.06	52.1065
2693.39	55.8196
2692.72	93.018
2692.05	55.8021
2691.37	44.6346
2690.7	55.7845
2690.03	55.7757
2689.36	48.3314
2688.69	59.4754
2688.01	52.0328
2687.34	63.1728
2686.67	63.1628
2685.99	44.5785
2685.32	85.4287
2684.65	59.4193
2683.97	55.6968
2683.3	66.8257
2682.63	70.5271
2681.95	51.9592
2681.28	77.9265
2680.61	51.9428
2679.93	70.4828
2679.26	48.2175
2678.58	74.169
2677.91	66.7416
2677.24	85.2675
2676.56	48.1871
2675.89	81.5346
2675.21	107.46
2674.54	59.2792
2673.86	48.1568
2673.19	77.7795
2672.51	74.064
2671.84	59.2419
2671.16	62.9346
2670.49	81.4319
2669.81	51.8122
2669.14	51.804
2668.46	44.3964
2667.78	55.4868
2667.11	62.8751
2666.43	55.4693
2665.76	99.8291
2665.08	70.239
2664.4	81.3166
2663.73	55.4344
2663.05	40.6455
2662.37	66.5003
2661.7	62.7959
2661.02	92.3324
2660.34	84.9324
2659.67	66.4584
2658.99	95.9803
2658.31	51.6736
2657.63	84.8789
2656.96	51.6573
2656.28	99.609
2655.6	95.9047
2654.92	77.4492
2654.24	70.0621
2653.57	73.7379
2652.89	81.0989
2652.21	62.6575
2651.53	73.703
2650.85	47.8994
2650.17	81.0478
2649.5	62.618
2648.82	73.6566
2648.14	92.0562
2647.46	95.7233
2646.78	51.5352
2646.1	66.2491
2645.42	73.5985
2644.74	69.9075
2644.06	66.2177
2643.38	58.8509
2642.7	73.552
2642.02	91.9255
2641.34	95.5874
2640.66	77.1931
2639.98	66.155
2639.3	73.494
2638.62	69.8083
2637.94	69.7972
2637.26	106.516
2636.58	62.4304
2635.9	77.1078
2635.22	51.3971
2634.54	77.0834
2633.86	88.0814
2633.17	66.0506
2632.49	73.378
2631.81	44.0199
2631.13	77.0226
2630.45	84.3447
2629.77	73.3317
2629.08	65.9881
2628.4	84.3048
2627.72	128.27
2627.04	62.2925
2626.36	47.6279
2625.67	47.6204
2624.99	69.5881
2624.31	76.901
2623.62	73.2274
2622.94	84.1982
2622.26	73.2043
2621.58	102.47
2620.89	54.8859
2620.21	76.828
2619.53	51.2106
2618.84	47.5452
2618.16	73.1349
2617.47	87.748
2616.79	91.3897
2616.11	43.8601
2615.42	65.7797
2614.74	69.4232
2614.05	65.7589
2613.37	73.0539
2612.69	69.3903
2612	32.8639
2611.32	69.3683
2610.63	80.3085
2609.95	65.6965
2609.26	80.2831
2608.58	54.7298
2607.89	65.6654
2607.21	87.54
2606.52	87.5261
2605.83	80.2196
2605.15	87.4984
2604.46	51.0326
2603.78	69.2476
2603.09	94.7449
2602.4	69.2257
2601.72	87.4291
2601.03	50.9923
2600.35	80.118
2599.66	69.1819
2598.97	69.1709
2598.29	116.48
2597.6	83.7067
2596.91	80.0546
2596.22	47.2975
2595.54	112.768
2594.85	54.5567
2594.16	83.6404
2593.47	90.8991
2592.79	76.3431
2592.1	90.8703
2591.41	58.1478
2590.72	83.5742
2590.03	69.0286
2589.35	94.4452
2588.66	69.0067
2587.97	101.678
2587.28	87.1387
2586.59	94.3853
2585.9	72.5926
2585.21	83.4682
2584.53	72.5696
2583.84	90.6976
2583.15	54.4099
2582.46	83.4153
2581.77	65.2712
2581.08	47.1328
2580.39	58.0004
2579.7	90.6113
2579.01	76.1014
2578.32	90.5826
2577.63	57.9636
2576.94	61.5766
2576.25	79.6747
2575.56	72.4201
2574.87	83.2699
2574.18	90.4964
2573.49	68.7663
2572.8	68.7554
2572.11	65.1264
2571.41	86.8214
2570.72	79.5736
2570.03	72.3282
2569.34	68.7009
2568.65	75.9205
2567.96	90.3672
2567.27	61.4399
2566.57	86.7249
2565.88	72.2593
2565.19	68.6354
2564.5	72.2364
2563.81	50.5574
2563.11	104.709
2562.42	68.5918
2561.73	93.8476
2561.04	72.179
2560.34	82.9927
2559.65	90.1951
2558.96	93.788
2558.26	39.6732
2557.57	108.183
2556.88	75.7157
2556.18	72.0988
2555.49	75.6917
2554.8	79.2834
2554.1	68.4612
2553.41	97.2715
2552.71	86.4498
2552.02	75.6315
2551.33	68.4177
2550.63	72.0071
2549.94	68.3959
2549.24	82.7819
2548.55	79.1701
2547.85	79.1575
2547.16	75.5474
2546.46	89.9231
2545.77	79.1197
2545.07	89.8945
2544.38	97.0706
2543.68	64.7034
2542.99	61.0991
2542.29	71.8698
2541.59	57.4867
2540.9	82.624
2540.2	75.4273
2539.51	93.3713
2538.81	82.5846
2538.11	96.9317
2537.42	86.1478
2536.72	68.1895
2536.02	53.8252
2535.33	82.5189
2534.63	89.6802
2533.93	93.2525
2533.24	86.0655
2532.54	78.8809
2531.84	78.8683
2531.14	86.0244
2530.45	103.93
2529.75	71.6642
2529.05	121.81
2528.35	100.298
2527.65	100.282
2526.96	53.7139
2526.26	71.6072
2525.56	96.6543
2524.86	82.322
2524.16	71.5729
2523.46	85.8738
2522.77	82.2827
2522.07	71.5387
2521.37	103.715
2520.67	82.2433
2519.97	85.8054
2519.27	96.5157
2518.57	85.7781
2517.87	103.632
2517.17	114.334
2516.47	89.3095
2515.77	114.298
2515.07	92.8522
2514.37	96.4081
2513.67	71.402
2512.97	60.682
2512.27	71.3792
2511.57	74.9363
2510.87	110.603
2510.17	92.7486
2509.47	103.434
2508.77	89.1529
2508.06	82.0076
2507.36	71.2996
2506.66	117.626
2505.96	67.713
2505.26	92.6451
2504.56	81.9422
2503.86	106.864
2503.15	53.4235
2502.45	89.025
2501.75	121.055
2501.05	88.9966
2500.34	121.016
2499.64	103.203
2498.94	96.0703
2498.24	117.4
2497.53	99.5966
2496.83	64.0162
2496.13	103.121
2495.42	71.1064
2494.72	103.088
2494.02	95.963
2493.31	81.7332
2492.61	88.8262
2491.91	99.4695
2491.2	85.2459
2490.5	71.0269
2489.8	92.3203
2489.09	71.0042
2488.39	85.1915
2487.68	102.923
2486.98	81.6157
2486.27	99.3424
2485.57	63.8528
2484.86	67.3894
2484.16	81.5636
2483.45	85.0962
2482.75	102.808
2482.04	85.069
2481.34	102.775
2480.63	134.65
2479.93	106.285
2479.22	99.1837
2478.51	95.6262
2477.81	77.9052
2477.1	109.758
2476.4	81.4203
2475.69	92.0256
2474.98	113.244
2474.28	84.9195
2473.57	91.9814
2472.86	77.818
2472.16	116.708
2471.45	91.9373
2470.74	113.135
2470.04	113.117
2469.33	102.496
2468.62	113.081
2467.91	98.9302
2467.21	105.98
2466.5	105.963
2465.79	116.54
2465.08	123.584
2464.37	81.1991
2463.67	102.365
2462.96	105.878
2462.25	70.574
2461.54	84.6752
2460.83	105.827
2460.12	74.0671
2459.41	102.267
2458.7	66.9916
2458	102.234
2457.29	95.1681
2456.58	77.532
2455.87	95.1377
2455.16	59.8919
2454.45	81.0172
2453.74	109.18
2453.03	112.684
2452.32	112.665
2451.61	70.4046
2450.9	116.149
2450.19	105.573
2449.48	80.9264
2448.77	126.647
2448.05	98.4875
2447.34	77.3706
2446.63	77.3582
2445.92	105.472
2445.21	87.8789
2444.5	80.8356
2443.79	108.935
2443.08	129.998
2442.36	73.771
2441.65	84.2961
2440.94	77.2591
2440.23	105.336
2439.52	87.7662
2438.8	94.7723
2438.09	115.814
2437.38	119.305
2436.67	94.7267
2435.95	112.251
2435.24	63.1309
2434.53	122.735
2433.82	115.703
2433.1	105.168
2432.39	112.161
2431.68	98.1249
2430.96	122.636
2430.25	108.603
2429.54	119.094
2428.82	73.5464
2428.11	98.0461
2427.39	122.538
2426.68	126.019
2425.97	115.499
2425.25	115.48
2424.54	87.4709
2423.82	87.4569
2423.11	108.429
2422.39	101.417
2421.68	87.4148
2420.96	125.857
2420.25	97.8731
2419.53	104.847
2418.82	122.302
2418.1	73.3694
2417.38	111.783
2416.67	132.721
2415.95	83.8104
2415.24	111.729
2414.52	94.2564
2413.8	101.222
2413.09	118.655
2412.37	111.657
2411.66	122.106
2410.94	122.086
2410.22	111.604
2409.5	122.047
2408.79	122.027
2408.07	115.036
2407.35	90.6196
2406.64	118.483
2405.92	108.012
2405.2	121.929
2404.48	114.943
2403.76	128.855
2403.05	111.424
2402.33	107.925
2401.61	111.388
2400.89	97.4492
2400.17	132.231
2399.46	104.376
2398.74	114.795
2398.02	142.602
2397.3	114.758
2396.58	107.786
2395.86	97.3394
2395.14	100.8
2394.42	100.783
2393.7	100.767
2392.98	128.544
2392.26	125.05
2391.54	145.868
2390.82	100.702
2390.1	97.2142
2389.38	83.313
2388.66	79.8288
2387.94	145.751
2387.22	124.909
2386.5	107.543
2385.78	138.743
2385.06	138.721
2384.34	117.894
2383.62	107.474
2382.9	128.255
2382.18	83.1789
2381.45	128.213
2380.73	128.193
2380.01	124.708
2379.29	100.443
2378.57	110.816
2377.84	121.185
2377.12	121.166
2376.4	134.992
2375.68	110.744
2374.96	117.647
2374.23	89.9509
2373.51	131.445
2372.79	138.341
2372.06	169.441
2371.34	110.637
2370.62	131.361
2369.89	100.233
2369.17	131.318
2368.45	138.208
2367.72	124.367
2367	131.255
2366.28	124.327
2365.55	127.759
2364.83	100.12
2364.1	131.17
2363.38	113.893
2362.66	82.8175
2361.93	100.055
2361.21	113.837
2360.48	137.962
2359.76	148.286
2359.03	110.334
2358.31	117.211
2357.58	106.852
2356.86	117.173
2356.13	93.0345
2355.4	96.4646
2354.68	127.451
2353.95	134.318
2353.23	158.401
2352.5	120.503
2351.77	92.9444
2351.05	127.348
2350.32	127.327
2349.59	116.984
2348.87	130.726
2348.14	92.8693
2347.41	116.928
2346.69	120.347
2345.96	123.766
2345.23	113.434
2344.5	137.473
2343.78	109.961
2343.05	133.993
2342.32	123.666
2341.59	137.384
2340.87	157.966
2340.14	106.438
2339.41	137.318
2338.68	116.701
2337.95	151.001
2337.22	130.388
2336.5	82.3373
2335.77	133.776
2335.04	123.466
2334.31	137.162
2333.58	130.283
2332.85	109.694
2332.12	119.959
2331.39	119.939
2330.66	157.609
2329.93	119.901
2329.2	126.732
2328.47	113.013
2327.74	109.57
2327.01	116.399
2326.28	154.033
2325.55	130.051
2324.82	147.14
2324.09	109.482
2323.36	171.037
2322.63	99.1855
2321.9	126.527
2321.17	136.763
2320.43	102.556
2319.7	133.301
2318.97	99.1053
2318.24	133.258
2317.51	146.902
2316.78	122.967
2316.04	122.948
2315.31	129.757
2314.58	122.908
2313.85	119.474
2313.11	133.107
2312.38	102.373
2311.65	129.652
2310.92	146.688
2310.18	143.253
2309.45	105.717
2308.72	132.978
2307.98	143.183
2307.25	149.977
2306.52	109.057
2305.78	136.299
2305.05	139.684
2304.32	149.88
2303.58	136.233
2302.85	173.668
2302.11	132.784
2301.38	122.55
2300.64	119.126
2299.91	129.316
2299.17	132.698
2298.44	146.284
2297.7	146.26
2296.97	156.439
2296.23	112.21
2295.5	135.99
2294.76	129.169
2294.03	135.946
2293.29	132.525
2292.56	122.311
2291.82	139.276
2291.08	146.047
2290.35	146.023
2289.61	152.79
2288.88	129.002
2288.14	98.4327
2287.4	115.385
2286.67	125.546
2285.93	145.881
2285.19	142.465
2284.45	98.3528
2283.72	149.201
2282.98	135.615
2282.24	111.864
2281.5	132.182
2280.77	111.828
2280.03	149.08
2279.29	142.28
2278.55	118.548
2277.81	135.461
2277.08	182.842
2276.34	104.948
2275.6	138.78
2274.86	142.142
2274.12	135.351
2273.38	142.095
2272.64	108.246
2271.9	101.464
2271.17	118.355
2270.43	138.622
2269.69	141.98
2268.95	141.957
2268.21	128.416
2267.47	114.88
2266.73	148.644
2265.99	158.753
2265.25	128.333
2264.51	141.818
2263.77	124.915
2263.03	155.274
2262.28	148.499
2261.54	141.726
2260.8	114.712
2260.06	155.173
2259.32	128.166
2258.58	97.7949
2257.84	144.983
2257.1	161.815
2256.35	158.418
2255.61	138.172
2254.87	158.366
2254.13	77.4857
2253.39	154.946
2252.64	117.875
2251.9	144.794
2251.16	141.404
2250.42	127.916
2249.67	134.626
2248.93	154.795
2248.19	148.041
2247.44	158.109
2246.7	151.356
2245.96	147.968
2245.21	158.031
2244.47	158.006
2243.73	147.896
2242.98	127.708
2242.24	147.848
2241.49	137.745
2240.75	147.8
2240.01	171.285
2239.26	171.257
2238.52	134.298
2237.77	114.134
2237.03	171.174
2236.28	151.011
2235.54	144.276
2234.79	117.415
2234.05	134.166
2233.3	124.084
2232.56	150.888
2231.81	160.921
2231.06	150.839
2230.32	150.814
2229.57	147.439
2228.83	127.313
2228.08	157.44
2227.33	140.668
2226.59	130.599
2225.84	154.015
2225.09	130.557
2224.35	177.394
2223.6	170.672
2222.85	163.952
2222.1	157.235
2221.36	150.519
2220.61	153.839
2219.86	157.158
2219.11	106.984
2218.37	163.792
2217.62	137.028
2216.87	140.347
2216.12	187.099
2215.37	150.323
2214.62	156.978
2213.88	153.613
2213.13	146.91
2212.38	143.548
2211.63	163.551
2210.88	143.501
2210.13	166.835
2209.38	150.127
2208.63	153.438
2207.88	143.407
2207.13	153.388
2206.38	176.7
2205.63	130.003
2204.88	169.977
2204.13	146.623
2203.38	159.926
2202.63	153.237
2201.88	163.204
2201.13	169.838
2200.38	163.151
2199.63	176.441
2198.88	139.798
2198.13	183.039
2197.38	153.062
2196.62	116.441
2195.87	146.359
2195.12	169.616
2194.37	126.36
2193.62	149.612
2192.86	146.264
2192.11	169.505
2191.36	179.447
2190.61	169.45
2189.86	179.388
2189.1	146.144
2188.35	129.516
2187.6	182.62
2186.84	149.392
2186.09	146.048
2185.34	155.981
2184.58	132.728
2183.83	202.377
2183.08	202.344
2182.32	145.929
2181.57	169.117
2180.81	135.935
2180.06	155.802
2179.31	162.405
2178.55	169.006
2177.8	155.726
2177.04	149.075
2176.29	165.611
2175.53	135.779
2174.78	155.624
2174.02	152.287
2173.27	168.813
2172.51	172.095
2171.76	155.522
2171	188.58
2170.25	172.01
2169.49	175.289
2168.73	162.033
2167.98	168.619
2167.22	211.566
2166.46	165.259
2165.71	191.669
2164.95	155.292
2164.19	168.481
2163.44	198.181
2162.68	171.728
2161.92	161.794
2161.17	171.672
2160.41	184.847
2159.65	155.114
2158.89	161.688
2158.14	174.859
2157.38	141.843
2156.62	181.398
2155.86	164.88
2155.1	168.15
2154.35	161.529
2153.59	174.687
2152.83	158.181
2152.07	224.053
2151.31	184.484
2150.55	148.222
2149.79	158.077
2149.03	128.417
2148.27	174.486
2147.51	194.208
2146.76	204.049
2146	167.819
2145.24	167.792
2144.48	187.501
2143.72	180.892
2142.96	174.286
2142.19	174.257
2141.43	157.792
2140.67	184.06
2139.91	200.461
2139.15	174.143
2138.39	206.966
2137.63	187.224
2136.87	187.193
2136.11	151.044
2135.35	160.868
2134.58	173.971
2133.82	177.225
2133.06	170.633
2132.3	196.851
2131.54	164.016
2130.77	170.549
2130.01	167.241
2129.25	180.329
2128.49	180.299
2127.72	137.66
2126.96	140.915
2126.2	173.657
2125.43	170.352
2124.67	196.528
2123.91	206.321
2123.14	206.287
2122.38	176.788
2121.62	176.759
2120.85	163.639
2120.09	176.701
2119.33	166.857
2118.56	183.185
2117.8	212.591
2117.03	140.614
2116.27	192.903
2115.5	183.065
2114.74	166.692
2113.97	163.397
2113.21	147.033
2112.44	205.812
2111.68	150.251
2110.91	189.415
2110.15	189.384
2109.38	146.912
2108.61	189.322
2107.85	159.918
2107.08	195.786
2106.32	192.491
2105.55	179.411
2104.78	150.028
2104.02	166.308
2103.25	136.937
2102.48	205.372
2101.72	198.82
2100.95	172.716
2100.18	188.979
2099.41	198.721
2098.65	185.66
2097.88	162.833
2097.11	188.855
2096.34	175.801
2095.57	218.088
2094.81	195.27
2094.04	182.222
2093.27	191.953
2092.5	185.415
2091.73	191.889
2090.96	201.613
2090.2	162.564
2089.43	152.785
2088.66	188.513
2087.89	198.231
2087.12	175.454
2086.35	188.419
2085.58	194.884
2084.81	175.367
2084.04	194.82
2083.27	175.309
2082.5	178.526
2081.73	210.951
2080.96	158.998
2080.19	220.614
2079.42	175.165
2078.65	171.892
2077.87	197.806
2077.1	191.289
2076.33	184.774
2075.56	200.949
2074.79	178.232
2074.02	165.242
2073.25	194.371
2072.47	194.338
2071.7	194.306
2070.93	161.895
2070.16	187.767
2069.39	220.105
2068.61	187.705
2067.84	190.91
2067.07	200.584
2066.3	207.021
2065.52	190.816
2064.75	139.046
2063.98	181.053
2063.2	177.791
2062.43	164.833
2061.66	184.195
2060.88	187.396
2060.11	203.517
2059.33	174.414
2058.56	213.138
2057.79	171.128
2057.01	184.012
2056.24	164.616
2055.46	216.224
2054.69	209.735
2053.91	193.569
2053.14	158.055
2052.36	193.505
2051.59	193.473
2050.81	161.201
2050.04	215.974
2049.26	203.046
2048.48	212.68
2047.71	183.648
2046.93	212.61
2046.16	206.133
2045.38	193.217
2044.6	206.064
2043.83	183.496
2043.05	218.871
2042.27	234.926
2041.5	212.363
2040.72	196.243
2039.94	189.777
2039.16	209.042
2038.39	199.361
2037.61	218.618
2036.83	241.082
2036.05	183.192
2035.28	257.069
2034.5	176.706
2033.72	186.314
2032.94	160.589
2032.16	211.942
2031.38	179.8
2030.6	199.031
2029.83	259.981
2029.05	211.801
2028.27	211.766
2027.49	214.939
2026.71	250.186
2025.93	205.247
2025.15	214.833
2024.37	221.209
2023.59	211.556
2022.81	205.111
2022.03	189.055
2021.25	227.47
2020.47	243.448
2019.69	208.178
2018.91	208.143
2018.13	208.109
2017.35	224.08
2016.56	224.043
2015.78	192.005
2015	227.168
2014.22	243.126
2013.44	207.902
2012.66	259.035
2011.88	211.03
2011.09	217.389
2010.31	191.782
2009.53	191.75
2008.75	210.89
2007.96	198.076
2007.18	233.18
2006.4	207.592
2005.62	207.557
2004.83	201.137
2004.05	220.257
2003.27	217.029
2002.48	216.993
2001.7	223.338
2000.92	248.821
2000.13	191.369
1999.35	213.66
1998.56	235.943
1997.78	239.092
1997	242.239
1996.21	178.463
1995.43	223.041
1994.64	223.004
1993.86	242.079
1993.07	203.822
1992.29	216.525
1991.5	264.244
1990.72	226.002
1989.93	260.973
1989.14	238.655
1988.36	232.253
1987.57	270.386
1986.79	232.175
1986	225.777
1985.21	225.739
1984.43	238.417
1983.64	263.805
1982.85	247.872
1982.07	222.412
1981.28	257.32
1980.49	247.748
1979.71	266.761
1978.92	215.914
1978.13	250.799
1977.34	247.583
1976.56	241.195
1975.77	250.674
1974.98	228.424
1974.19	244.246
1973.4	285.435
1972.62	263.191
1971.83	237.784
1971.04	225.064
1970.25	231.366
1969.46	212.314
1968.67	275.646
1967.88	259.761
1967.09	256.55
1966.3	240.674
1965.51	237.467
1964.72	243.759
1963.93	224.727
1963.14	227.855
1962.35	262.622
1961.56	253.088
1960.77	240.393
1959.98	256.166
1959.19	237.151
1958.4	230.789
1957.61	214.945
1956.82	214.91
1956.03	221.194
1955.24	240.113
1954.45	211.643
1953.65	255.825
1952.86	233.677
1952.07	236.796
1951.28	217.816
1950.49	227.248
1949.69	239.833
1948.9	261.879
1948.11	261.836
1947.32	223.942
1946.52	274.363
1945.73	182.878
1944.94	277.424
1944.15	239.553
1943.35	258.422
1942.56	245.775
1941.77	248.885
1940.97	292.942
1940.18	242.503
1939.38	248.76
1938.59	267.609
1937.8	258.121
1937	280.109
1936.21	236.007
1935.41	273.723
1934.62	248.511
1933.82	270.486
1933.03	242.139
1932.23	235.81
1931.44	304.93
1930.64	270.306
1929.85	270.26
1929.05	304.778
1928.25	282.736
1927.46	292.112
1926.66	266.939
1925.87	235.495
1925.07	285.687
1924.27	266.806
1923.48	238.516
1922.68	272.992
1921.88	282.359
1921.09	285.448
1920.29	250.902
1919.49	282.217
1918.69	272.764
1917.9	294.662
1917.1	272.673
1916.3	288.296
1915.5	247.517
1914.71	278.802
1913.91	269.359
1913.11	281.84
1912.31	303.71
1911.51	234.788
1910.71	253.529
1909.91	253.486
1909.12	331.668
1908.32	269.044
1907.52	284.638
1906.72	281.463
1905.92	312.685
1905.12	271.99
1904.32	312.58
1903.52	271.899
1902.72	262.479
1901.92	318.672
1901.12	309.247
1900.32	284.21
1899.52	274.794
1898.72	280.993
1897.92	290.311
1897.11	302.746
1896.31	283.972
1895.51	249.604
1894.71	277.638
1893.91	277.592
1893.11	271.308
1892.31	289.971
1891.5	311.744
1890.7	264.938
1889.9	268.01
1889.1	277.313
1888.3	314.651
1887.49	280.335
1886.69	292.745
1885.89	280.241
1885.08	333.119
1884.28	289.485
1883.48	301.886
1882.67	317.394
1881.87	273.784
1881.07	320.398
1880.26	314.124
1879.46	304.742
1878.65	338.891
1877.85	304.64
1877.05	301.481
1876.24	270.355
1875.44	295.166
1874.63	288.903
1873.83	332.339
1873.02	220.487
1872.22	276.338
1871.41	332.171
1870.61	325.908
1869.8	328.957
1869	304.079
1868.19	331.949
1867.38	266.755
1866.58	297.723
1865.77	285.27
1864.96	266.621
1864.16	285.174
1863.35	288.226
1862.54	319.164
1861.74	297.424
1860.93	275.69
1860.12	319.004
1859.32	309.66
1858.51	315.8
1857.7	325.034
1856.89	349.74
1856.09	321.83
1855.28	331.058
1854.47	272.227
1853.66	290.739
1852.85	377.278
1852.04	346.296
1851.24	309.141
1850.43	321.452
1849.62	305.946
1848.81	367.692
1848	290.397
1847.19	305.792
1846.38	311.917
1845.57	385.971
1844.76	321.074
1843.95	299.413
1843.14	339.484
1842.33	296.227
1841.52	351.71
1840.71	308.466
1839.9	320.751
1839.09	348.449
1838.28	360.723
1837.47	317.506
1836.66	311.289
1835.84	354.378
1835.03	378.967
1834.22	360.42
1833.41	351.119
1832.6	338.742
1831.79	304.817
1830.97	357.099
1830.16	326.26
1829.35	332.36
1828.54	329.227
1827.72	286.102
1826.91	353.723
1826.1	338.287
1825.29	341.304
1824.47	316.653
1823.66	319.673
1822.85	313.473
1822.03	276.547
1821.22	341.017
1820.4	294.884
1819.59	337.831
1818.78	294.785
1817.96	322.367
1817.15	328.452
1816.33	328.396
1815.52	346.753
1814.7	374.307
1813.89	355.839
1813.07	380.315
1812.26	355.719
1811.44	334.197
1810.63	318.813
1809.81	337.149
1809	309.512
1808.18	340.099
1807.36	392.12
1806.55	312.418
1805.73	336.865
1804.91	345.994
1804.1	327.567
1803.28	364.242
1802.46	358.06
1801.65	330.461
1800.83	373.236
1800.01	363.997
1799.19	345.586
1798.38	318.007
1797.56	317.954
1796.74	317.9
1795.92	366.746
1795.11	354.461
1794.29	369.677
1793.47	360.451
1792.65	339.011
1791.83	348.115
1791.01	363.322
1790.19	375.471
1789.37	360.147
1788.56	326.519
1787.74	344.77
1786.92	314.206
1786.1	393.454
1785.28	372.041
1784.46	350.635
1783.64	362.77
1782.82	371.853
1782	383.98
1781.18	316.882
1780.36	417.361
1779.53	335.051
1778.71	371.539
1777.89	347.117
1777.07	371.413
1776.25	374.394
1775.43	386.505
1774.61	325.583
1773.79	352.908
1772.96	322.431
1772.14	371.037
1771.32	355.77
1770.5	416.515
1769.67	340.451
1768.85	337.355
1768.03	367.685
1767.21	337.24
1766.38	325.033
1765.56	397.87
1764.74	470.683
1763.91	409.88
1763.09	431.06
1762.27	397.601
1761.44	412.707
1760.62	400.5
1759.79	406.5
1758.97	406.431
1758.15	376.037
1757.32	333.525
1756.5	409.256
1755.67	378.877
1754.85	345.477
1754.02	387.839
1753.2	369.596
1752.37	387.707
1751.55	420.955
1750.72	366.381
1749.89	378.428
1749.07	426.795
1748.24	402.511
1747.42	375.21
1746.59	353.969
1745.76	362.984
1744.94	375.02
1744.11	414.266
1743.28	399.079
1742.46	395.989
1741.63	395.922
1740.8	407.942
1739.97	401.83
1739.15	422.907
1738.32	380.552
1737.49	404.646
1736.66	422.692
1735.83	407.527
1735.01	446.695
1734.18	347.035
1733.35	389.217
1732.52	392.167
1731.69	413.214
1730.86	395.05
1730.03	416.089
1729.2	419.033
1728.37	412.934
1727.55	403.823
1726.72	418.82
1725.89	400.673
1725.06	418.678
1724.23	364.399
1723.4	397.459
1722.56	343.201
1721.73	424.414
1720.9	367.161
1720.07	403.207
1719.24	385.087
1718.41	433.15
1717.58	396.987
1716.75	420.975
1715.92	426.916
1715.08	408.808
1714.25	387.701
1713.42	444.729
1712.59	378.556
1711.76	363.472
1710.92	438.495
1710.09	393.378
1709.26	387.306
1708.43	399.248
1707.59	414.187
1706.76	396.111
1705.93	426.047
1705.09	359.979
1704.26	407.907
1703.43	419.833
1702.59	410.766
1701.76	422.688
1700.92	431.608
1700.09	449.515
1699.26	461.424
1698.42	404.426
1697.59	395.371
1696.75	392.309
1695.92	434.162
1695.08	434.088
1694.25	428.028
1693.41	418.977
1692.58	430.874
1691.74	487.643
1690.9	436.71
1690.07	412.711
1689.23	430.581
1688.4	415.56
1687.56	406.522
1686.72	442.316
1685.89	397.419
1685.05	442.166
1684.21	460.013
1683.38	459.935
1682.54	429.996
1681.7	459.778
1680.86	432.834
1680.03	441.714
1679.19	441.639
1678.35	483.334
1677.51	492.2
1676.67	471.239
1675.84	483.087
1675	432.319
1674.16	506.77
1673.32	473.898
1672.48	473.818
1671.64	437.983
1670.8	449.825
1669.96	473.576
1669.12	485.407
1668.28	479.369
1667.44	482.264
1666.6	476.229
1665.76	470.196
1664.92	493.92
1664.08	493.835
1663.24	446.161
1662.4	472.85
1661.56	490.61
1660.72	416.204
1659.88	457.746
1659.04	478.471
1658.2	460.561
1657.36	487.221
1656.51	490.108
1655.67	492.994
1654.83	451.339
1653.99	489.857
1653.15	531.33
1652.3	465.947
1651.46	501.476
1650.62	477.656
1649.78	480.541
1648.93	510.116
1648.09	444.793
1647.25	512.907
1646.4	486.141
1645.56	489.022
1644.72	497.828
1643.87	500.706
1643.03	491.734
1642.18	482.765
1641.34	518.217
1640.5	464.835
1639.65	482.517
1638.81	509.072
1637.96	517.863
1637.12	446.766
1636.27	476.271
1635.43	473.232
1634.58	452.451
1633.73	425.764
1632.89	517.333
1632.04	425.618
1631.2	490.559
1630.35	484.566
1629.5	493.346
1628.66	505.076
1627.81	478.411
1626.97	442.898
1626.12	478.248
1625.27	469.311
1624.42	540.058
1623.58	436.694
1622.73	531.023
1621.88	460.141
1621.03	486.605
1620.19	448.19
1619.34	501.179
1618.49	468.67
1617.64	456.801
1616.79	462.616
1615.94	450.753
1615.1	491.914
1614.25	432.928
1613.4	424.02
1612.55	450.444
1611.7	462.141
1610.85	462.062
1610	459.041
1609.15	467.788
1608.3	514.773
1607.45	499.98
1606.6	461.667
1605.75	526.269
1604.9	461.509
1604.05	487.881
1603.2	470.167
1602.35	440.706
1601.5	490.568
1600.65	490.484
1599.79	455.162
1598.94	493.252
1598.09	487.297
1597.24	525.368
1596.39	487.13
1595.54	469.442
1594.68	507.497
1593.83	466.348
1592.98	542.514
1592.13	448.596
1591.27	483.698
1590.42	515.856
1589.57	468.879
1588.71	503.959
1587.86	480.437
1587.01	494.999
1586.15	506.628
1585.3	471.405
1584.45	480.107
1583.59	518.076
1582.74	509.207
1581.88	509.12
1581.03	482.703
1580.17	541.12
1579.32	529.329
1578.46	578.946
1577.61	496.989
1576.75	479.366
1575.9	537.733
1575.04	531.797
1574.19	505.413
1573.33	479.037
1572.47	481.876
1571.62	493.473
1570.76	470.032
1569.91	487.465
1569.05	528.24
1568.19	516.478
1567.33	563.068
1566.48	533.802
1565.62	513.295
1564.76	530.703
1563.91	498.542
1563.05	448.902
1562.19	515.857
1561.33	474.973
1560.47	515.68
1559.62	521.417
1558.76	498.028
1557.9	495.03
1557.04	483.3
1556.18	523.97
1555.32	518.059
1554.46	477.231
1553.6	500.424
1552.74	523.61
1551.89	523.52
1551.03	485.626
1550.17	537.877
1549.31	543.598
1548.45	555.13
1547.59	534.693
1546.72	583.994
1545.86	540.319
1545	560.558
1544.14	505.286
1543.28	473.261
1542.42	560.268
1541.56	525.343
1540.7	580.389
1539.84	530.965
1538.97	548.279
1538.11	536.583
1537.25	608.989
1536.39	550.895
1535.53	498.619
1534.66	489.838
1533.8	533.223
1532.94	541.824
1532.07	492.482
1531.21	506.88
1530.35	524.168
1529.48	550.137
1528.62	492.143
1527.76	535.475
1526.89	503.549
1526.03	541.078
1525.17	549.663
1524.3	540.891
1523.44	546.582
1522.57	506.007
1521.71	488.574
1520.84	534.738
1519.98	563.545
1519.11	528.774
1518.25	491.127
1517.38	537.258
1516.52	563.157
1515.65	516.86
1514.78	551.415
1513.92	508.022
1513.05	539.681
1512.18	510.733
1511.32	542.38
1510.45	519.21
1509.58	596.988
1508.72	542.099
1507.85	567.952
1506.98	550.559
1506.12	515.88
1505.25	547.488
1504.38	553.156
1503.51	541.538
1502.64	599.045
1501.78	538.472
1500.91	555.653
1500.04	569.95
1499.17	558.339
1498.3	555.365
1497.43	546.638
1496.56	526.408
1495.69	537.821
1494.83	621.119
1493.96	557.761
1493.09	572.037
1492.22	497.213
1491.35	520.116
1490.48	565.995
1489.61	583.133
1488.74	545.695
1487.86	565.702
1486.99	559.862
1486.12	591.341
1485.25	579.759
1484.38	562.441
1483.51	591.035
1482.64	616.75
1481.77	547.809
1480.89	590.729
1480.02	536.151
1479.15	553.258
1478.28	564.627
1477.41	530.142
1476.53	607.409
1475.66	572.928
1474.79	592.878
1473.91	575.594
1473.04	612.715
1472.17	538.18
1471.29	578.157
1470.42	583.781
1469.55	600.847
1468.67	626.489
1467.8	592.058
1466.93	663.448
1466.05	631.882
1465.18	657.501
1464.3	565.925
1463.43	600.119
1462.55	631.445
1461.68	657.046
1460.8	654.076
1459.93	616.838
1459.05	605.31
1458.17	599.496
1457.3	585.121
1456.42	656.363
1455.55	667.663
1454.67	647.578
1453.79	684.545
1452.92	615.984
1452.04	593.067
1451.16	644.278
1450.29	638.466
1449.41	658.304
1448.53	678.135
1447.65	646.681
1446.78	655.114
1445.9	617.978
1445.02	700.444
1444.14	640.539
1443.26	691.662
1442.39	708.617
1441.51	697.113
1440.63	674.233
1439.75	642.828
1438.87	699.594
1437.99	645.449
1437.11	608.379
1436.23	653.752
1435.35	633.745
1434.47	650.684
1433.59	664.775
1432.71	693.064
1431.83	661.705
1430.95	610.48
1430.07	633.086
1429.19	596.076
1428.31	610.162
1427.43	675.318
1426.55	609.951
1425.67	635.373
1424.78	697.655
1423.9	649.33
1423.02	649.217
1422.14	646.27
1421.26	668.83
1420.37	620.544
1419.49	648.766
1418.61	594.835
1417.73	600.396
1416.84	617.281
1415.96	639.823
1415.08	634.05
1414.19	667.901
1413.31	602.704
1412.43	602.6
1411.54	610.981
1410.66	690.062
1409.77	636.217
1408.89	585.218
1408.01	667.089
1407.12	618.928
1406.24	661.206
1405.35	630.014
1404.47	658.151
1403.58	618.498
1402.7	657.922
1401.81	635.222
1400.92	604.062
1400.04	705.557
1399.15	643.356
1398.27	643.244
1397.38	629.028
1396.49	645.841
1395.61	589.333
1394.72	654.074
1393.83	668.054
1392.95	628.481
1392.06	625.554
1391.17	726.869
1390.28	704.208
1389.4	661.84
1388.51	639.198
1387.62	701.025
1386.73	774.089
1385.84	678.266
1384.96	703.472
1384.07	644.269
1383.18	742.608
1382.29	694.668
1381.4	677.675
1380.51	719.729
1379.62	688.683
1378.73	739.151
1377.84	722.163
1376.95	736.084
1376.06	738.765
1375.17	724.594
1374.28	640.227
1373.39	760.839
1372.5	797.198
1371.61	777.413
1370.72	659.423
1369.83	735.059
1368.94	777.007
1368.05	706.756
1367.15	734.674
1366.26	714.921
1365.37	689.568
1364.48	709.066
1363.59	686.525
1362.69	787.265
1361.8	717.099
1360.91	758.984
1360.02	742.05
1359.12	713.924
1358.23	671.811
1357.34	738.863
1356.44	775.111
1355.55	668.662
1354.66	802.813
1353.76	679.615
1352.87	763.385
1351.97	760.456
1351.08	746.347
1350.19	667.962
1349.29	673.434
1348.4	715.224
1347.5	720.685
1346.61	759.66
1345.71	742.773
1344.82	723.1
1343.92	734.139
1343.02	697.729
1342.13	708.769
1341.23	708.645
1340.34	725.258
1339.44	725.131
1338.54	702.697
1337.65	736.03
1336.75	721.963
1335.85	707.902
1334.95	713.352
1334.06	707.655
1333.16	732.601
1332.26	693.482
1331.36	726.776
1330.47	732.217
1329.57	746.007
1328.67	706.913
1327.77	762.442
1326.87	720.576
1325.97	745.485
1325.08	781.51
1324.18	767.47
1323.28	736.753
1322.38	719.946
1321.48	736.495
1320.58	741.924
1319.68	722.346
1318.78	730.553
1317.88	738.757
1316.98	730.298
1316.08	738.499
1315.18	766.128
1314.28	738.24
1313.38	707.588
1312.47	757.402
1311.57	726.757
1310.67	704.443
1309.77	718.184
1308.87	659.837
1307.97	698.529
1307.06	720.578
1306.16	731.535
1305.26	759.112
1304.36	794.989
1303.45	761.616
1302.55	739.33
1301.65	750.275
1300.75	744.607
1299.84	785.99
1298.94	747.113
1298.04	824.447
1297.13	863.028
1296.23	835.22
1295.32	801.892
1294.42	884.692
1293.51	826.489
1292.61	837.399
1291.71	892.516
1290.8	817.766
1289.9	859.056
1288.99	883.761
1288.08	853.232
1287.18	886.212
1286.27	877.775
1285.37	792.067
1284.46	869.189
1283.56	858.001
1282.65	879.918
1281.74	846.669
1280.84	802.402
1279.93	802.261
1279.02	793.851
1278.12	813.003
1277.21	766.018
1276.3	765.883
1275.39	771.258
1274.49	773.876
1273.58	696.642
1272.67	762.592
1271.76	699.149
1270.85	721.043
1269.94	704.407
1269.04	632.755
1268.13	728.915
1267.22	657.283
1266.31	692.914
1265.4	657.053
1264.49	709.162
1263.58	678.807
1262.67	708.913
1261.76	717.03
1260.85	738.878
1259.94	653.614
1259.03	694.686
1258.12	691.818
1257.21	686.207
1256.3	719.018
1255.39	653.039
1254.47	661.154
1253.56	639.095
1252.65	688.346
1251.74	641.612
1250.83	677.138
1249.91	668.796
1249	660.457
1248.09	654.861
1247.18	632.829
1246.27	646.413
1245.35	602.483
1244.44	629.757
1243.53	659.76
1242.61	640.484
1241.7	659.528
1240.79	662.148
1239.87	601.846
1238.96	604.476
1238.04	637.186
1237.13	631.605
1236.21	642.429
1235.3	593.117
1234.38	655.866
1233.47	617.499
1232.55	680.222
1231.64	614.55
1230.72	625.365
1229.81	652.558
1228.89	589.656
1227.98	652.328
1227.06	614.009
1226.14	611.172
1225.23	605.608
1224.31	643.686
1223.39	580.852
1222.48	627.1
1221.56	613.359
1220.64	585.996
1219.73	585.892
1218.81	558.543
1217.89	634.72
1216.97	631.884
1216.05	620.88
1215.14	647.997
1214.22	598.884
1213.3	625.995
1212.38	628.606
1211.46	628.495
1210.54	631.104
1209.62	647.312
1208.7	644.478
1207.78	619.895
1206.87	606.194
1205.95	641.419
1205.03	649.458
1204.11	614.024
1203.18	613.915
1202.26	619.239
1201.34	632.707
1200.42	627.165
1199.5	624.34
1198.58	599.803
1197.66	605.124
1196.74	645.714
1195.82	583.21
1194.89	653.622
1193.97	577.58
1193.05	618.146
1192.13	680.382
1191.21	653.16
1190.28	658.464
1189.36	625.837
1188.44	631.144
1187.51	612.074
1186.59	620.089
1185.67	603.736
1184.74	611.749
1183.82	598.109
1182.9	603.415
1181.97	624.952
1181.05	681.645
1180.12	584.164
1179.2	611.101
1178.27	619.103
1177.35	616.29
1176.42	618.884
1175.5	645.795
1174.57	605.157
1173.65	594.245
1172.72	645.452
1171.8	639.938
1170.87	642.524
1169.94	693.695
1169.02	653.092
1168.09	647.58
1167.17	617.79
1166.24	633.864
1165.31	590.603
1164.38	668.692
1163.46	611.96
1162.53	657.674
1161.6	652.167
1160.67	697.857
1159.75	638.466
1158.82	651.821
1157.89	665.17
1156.96	627.357
1156.03	651.474
1155.1	640.593
1154.17	648.552
1153.25	678.034
1152.32	642.942
1151.39	629.38
1150.46	669.606
1149.53	637.223
1148.6	693.563
1147.67	671.938
1146.74	714.815
1145.81	655.579
1144.88	682.326
1143.94	684.891
1143.01	770.701
1142.08	681.963
1141.15	620.1
1140.22	676.353
1139.29	665.499
1138.36	684.162
1137.42	678.676
1136.49	657.099
1135.56	624.803
1134.63	713.168
1133.69	702.319
1132.76	720.956
1131.83	685.992
1130.9	712.662
1129.96	691.106
1129.03	707.053
1128.1	779.226
1127.16	701.447
1126.23	776.273
1125.29	639.642
1124.36	674.315
1123.42	684.897
1122.49	719.549
1121.56	735.467
1120.62	724.641
1119.69	708.471
1118.75	686.961
1117.81	670.804
1116.88	681.373
1115.94	697.282
1115.01	667.775
1114.07	659.645
1113.13	659.528
1112.2	667.419
1111.26	629.932
1110.33	699.207
1109.39	637.713
1108.45	656.274
1107.51	664.159
1106.58	674.708
1105.64	685.254
1104.7	693.129
1103.76	655.69
1102.82	644.914
1101.89	679.437
1100.95	681.98
1100.01	695.177
1099.07	673.749
1098.13	716.23
1097.19	646.888
1096.25	673.389
1095.31	699.88
1094.37	673.149
1093.43	728.893
1092.49	683.548
1091.55	659.493
1090.61	656.717
1089.67	635.334
1088.73	664.457
1087.79	757.346
1086.85	645.622
1085.91	648.163
1084.97	666.639
1084.03	666.521
1083.09	637.197
1082.14	700.792
1081.2	698.013
1080.26	666.046
1079.32	671.233
1078.38	655.198
1077.43	676.298
1076.49	707.998
1075.55	649.545
1074.6	657.382
1073.66	662.565
1072.72	694.244
1071.77	670.277
1070.83	648.966
1069.89	677.983
1068.94	669.918
1068	645.972
1067.05	706.736
1066.11	645.741
1065.16	611.228
1064.22	629.638
1063.27	618.945
1062.33	682.305
1061.38	645.165
1060.44	645.05
1059.49	647.578
1058.54	652.748
1057.6	671.127
1056.65	686.858
1055.71	628.627
1054.76	639.078
1053.81	641.604
1052.87	641.49
1051.92	691.524
1050.97	620.149
1050.02	630.592
1049.08	641.032
1048.13	677.842
1047.18	661.899
1046.23	648.598
1045.28	632.665
1044.33	664.18
1043.39	674.602
1042.44	682.385
1041.49	703.337
1040.54	663.705
1039.59	634.62
1038.64	579.218
1037.69	608.07
1036.74	660.599
1035.79	634.167
1034.84	673.517
1033.89	665.505
1032.94	615.417
1031.99	586.382
1031.04	649.374
1030.09	644.001
1029.13	622.861
1028.18	609.611
1027.23	620.011
1026.28	651.42
1025.33	632.92
1024.38	598.672
1023.42	643.195
1022.47	619.456
1021.52	632.467
1020.57	669.088
1019.61	668.968
1018.66	590.161
1017.71	660.861
1016.75	645.011
1015.8	686.84
1014.85	634.296
1013.89	636.803
1012.94	615.728
1011.98	686.348
1011.03	628.603
1010.07	667.771
1009.12	646.706
1008.16	599.47
1007.21	615.066
1006.25	659.442
1005.3	601.764
1004.34	609.504
1003.39	591.087
1002.43	611.9
1001.47	648.394
1000.52	658.734
999.561	663.843
998.604	653.271
997.648	613.965
996.69	626.915
995.733	603.298
994.776	668.47
993.818	634.41
992.861	631.686
991.903	639.402
990.944	662.772
989.986	647
989.028	639.058
988.069	623.296
987.11	654.474
986.151	615.251
985.192	612.534
984.233	633.273
983.274	680.06
982.314	638.256
981.354	617.304
980.394	632.818
979.434	617.082
978.474	583.129
977.513	655.903
976.552	676.603
975.592	598.426
974.63	613.927
973.669	681.441
972.708	678.718
971.746	590.196
970.785	616.086
969.823	613.376
968.861	644.449
967.898	652.127
966.936	639.022
965.973	641.504
965.011	597.245
964.048	654.255
963.085	625.583
962.121	576.16
961.158	622.764
960.194	643.407
959.231	640.697
958.267	637.988
957.302	645.653
956.338	627.389
955.374	671.341
954.409	611.614
953.444	642.597
952.479	619.166
951.514	626.825
950.549	642.25
949.583	657.67
948.617	603.187
947.651	675.552
946.685	600.382
945.719	628.736
944.753	672.6
943.786	649.201
942.82	620.638
941.853	695.507
940.885	666.946
939.918	695.256
938.951	648.617
937.983	620.079
937.015	674.215
936.047	637.935
935.079	642.985
934.111	619.633
933.142	668.567
932.174	596.182
931.205	647.682
930.236	670.785
929.267	665.505
928.297	686.017
927.328	644.637
926.358	654.833
925.388	626.361
924.418	652.02
923.448	649.326
922.478	667.242
921.507	641.364
920.536	690.179
919.565	690.055
918.594	666.761
917.623	697.527
916.651	671.667
915.68	674.119
914.708	653.417
913.736	671.304
912.764	668.611
911.791	681.346
910.819	663.228
909.846	660.538
908.873	660.419
907.9	673.146
906.927	644.768
905.954	701.155
904.98	677.918
904.006	672.66
903.032	680.24
902.058	674.984
901.084	685.126
900.11	682.437
899.135	746.441
898.16	707.836
897.185	664.118
896.21	679.38
895.235	694.637
894.259	694.511
893.284	673.887
892.308	742.935
891.332	660.837
890.355	701.692
889.379	683.642
888.403	683.518
887.426	732.026
886.449	721.657
885.472	747.113
884.494	744.42
883.517	698.247
882.539	700.678
881.562	692.881
880.584	723.431
879.605	700.297
878.627	723.169
877.649	781.801
876.67	748.452
875.691	740.654
874.712	671.575
873.733	732.727
872.753	804.067
871.774	742.671
870.794	791.018
869.814	785.772
868.834	780.528
867.854	754.884
866.873	782.796
865.893	775.006
864.912	795.257
863.931	787.467
862.95	884.148
861.968	812.657
860.987	822.698
860.005	817.456
859.023	847.861
858.041	804.431
857.059	890.823
856.077	819.408
855.094	852.336
854.111	903.058
853.128	852.027
852.145	785.757
851.162	816.124
850.178	826.144
849.195	841.243
848.211	866.501
847.227	825.694
846.243	823.004
845.258	866.03
844.274	832.863
843.289	736.239
842.304	827.484
841.319	771.502
840.334	799.273
839.348	791.517
838.363	791.373
837.377	748.118
836.391	760.66
835.405	770.662
834.418	767.988
833.432	714.631
832.445	775.31
831.458	714.371
830.471	731.971
829.484	749.564
828.496	711.451
827.509	777.138
826.521	706.13
825.533	738.898
824.545	738.764
823.557	710.805
822.568	776.432
821.579	695.375
820.591	695.248
819.602	722.927
818.612	689.941
817.623	672.128
816.633	684.638
815.644	719.876
814.654	676.813
813.664	729.714
812.673	737.155
811.683	706.732
810.692	734.363
809.701	673.674
808.71	706.347
807.719	680.996
806.728	640.524
805.736	736.217
804.744	713.395
803.753	743.51
802.76	675.337
801.768	730.642
800.776	672.572
799.783	712.746
798.79	752.906
797.797	725.075
796.804	735.012
795.811	707.194
794.817	674.354
793.823	732.095
792.83	726.931
791.835	691.59
790.841	779.469
789.847	739.104
788.852	718.861
787.857	758.939
786.862	776.389
785.867	738.565
784.872	735.919
783.876	743.319
782.881	728.119
781.885	660.208
780.889	722.834
779.892	722.702
778.896	697.481
777.899	704.879
776.902	767.451
775.905	749.758
774.908	699.48
773.911	689.325
772.913	729.299
771.916	736.683
770.918	751.58
769.92	748.938
768.921	716.245
767.923	726.13
766.924	743.522
765.926	758.404
764.927	713.22
763.927	703.082
762.928	710.458
761.928	792.867
760.929	652.683
759.929	715.07
758.929	769.935
757.928	772.293
756.928	704.683
755.927	774.51
754.927	731.903
753.926	714.287
752.924	741.624
751.923	733.999
750.921	711.399
749.92	751.2
748.918	733.597
747.916	760.905
746.913	753.283
745.911	760.627
744.908	730.567
743.906	698.025
742.903	760.21
741.899	770.039
740.896	732.525
739.892	759.793
738.889	734.748
737.885	749.555
736.881	769.336
735.876	684.559
734.872	754.121
733.867	753.984
732.862	763.797
731.857	781.07
730.852	803.31
729.847	783.271
728.841	733.405
727.835	785.47
726.829	755.504
725.823	797.606
724.817	735.353
723.81	774.96
722.804	759.918
721.797	757.296
720.79	796.877
719.783	804.177
718.775	764.325
717.768	811.326
716.76	781.409
715.752	788.707
714.744	783.603
713.735	773.542
712.727	785.795
711.718	778.216
710.709	792.941
709.7	797.751
708.691	814.944
707.681	817.271
706.672	772.551
705.662	824.398
704.652	878.702
703.642	799.349
702.631	809.099
701.621	786.686
700.61	803.856
699.599	818.546
698.588	808.506
697.577	803.414
696.565	855.17
695.553	859.955
694.541	830.15
693.529	854.7
692.517	898.999
691.505	950.69
690.492	861.636
689.479	896.036
688.466	937.827
687.453	977.135
686.44	964.62
685.426	957.043
684.413	988.928
683.399	1023.27
682.385	1126.62
681.37	1096.83
680.356	1131.13
679.341	1318.18
678.326	1317.94
677.311	1315.23
676.296	1366.71
675.281	1309.83
674.265	1201.28
673.249	1100.15
672.233	1127.01
671.217	1048.08
670.201	961.79
669.184	934.56
668.168	872.916
667.151	917.008
666.134	911.923
665.116	869.977
664.099	909.131
663.081	894.224
662.063	820.373
661.045	815.311
660.027	869.177
659.009	871.472
657.99	913.037
656.972	898.145
655.953	841.55
654.933	834.036
653.914	816.714
652.895	811.66
651.875	853.189
650.855	808.91
649.835	825.917
648.815	887.023
647.794	877.06
646.774	854.854
645.753	825.309
644.732	815.363
643.71	817.661
642.689	854.225
641.668	849.173
640.646	866.144
639.624	865.984
638.602	853.596
637.579	838.766
636.557	907.07
635.534	816.457
634.511	892.071
633.488	867.471
632.465	833.108
631.441	896.464
630.418	866.992
629.394	849.74
628.37	849.583
627.346	893.362
626.321	946.887
625.297	917.433
624.272	866.034
623.247	880.508
622.222	843.767
621.196	875.307
620.171	855.644
619.145	818.927
618.119	884.57
617.093	813.752
616.067	874.5
615.04	915.742
614.014	871.743
612.987	893.493
611.96	876.289
610.932	854.224
609.905	892.999
608.877	829.581
607.849	904.831
606.821	873.049
605.793	846.142
604.765	863.003
603.736	889.58
602.708	923.437
601.679	835.799
600.649	932.812
599.62	905.924
598.591	903.328
597.561	908.017
596.531	856.874
595.501	885.839
594.471	888.102
593.44	815.156
592.409	902.327
591.379	868.208
590.348	853.5
589.316	872.736
588.285	882.27
587.253	886.954
586.221	930.402
585.189	884.203
584.157	859.82
583.125	808.807
582.092	847.396
581.059	919.86
580.027	980.195
578.993	873.543
577.96	880.64
576.927	882.896
575.893	935.938
574.859	906.749
573.825	867.901
572.79	879.826
571.756	862.746
570.721	860.17
569.686	886.584
568.651	828.453
567.616	910.405
566.581	963.354
565.545	917.31
564.509	851.975
563.473	950.753
562.437	919.213
561.401	938.34
560.364	901.99
559.327	909.057
558.29	892.013
557.253	891.847
556.216	935.061
555.178	951.755
554.14	925.079
553.102	838.197
552.064	922.328
551.026	975.127
549.987	861.804
548.949	866.458
547.91	873.516
546.871	909.443
545.831	813.055
544.792	942.777
543.752	896.915
542.712	937.619
541.672	894.178
540.632	894.012
539.592	934.694
538.551	891.278
537.51	895.917
536.469	857.327
535.428	902.788
534.387	912.222
533.345	880.851
532.303	892.686
531.261	899.718
530.219	858.772
529.177	896.986
528.134	906.411
527.091	913.435
526.048	889.295
525.005	886.734
523.962	865.004
522.918	907.965
521.874	938.935
520.831	921.997
519.786	883.516
518.742	921.654
517.698	883.188
516.653	918.919
515.608	933.104
514.563	966.42
513.518	913.623
512.472	875.194
511.426	956.318
510.381	948.969
509.335	900.995
508.288	939.059
507.242	943.662
506.195	883.772
505.148	933.759
504.101	890.607
503.054	864.181
502.007	897.436
500.959	906.814
499.911	882.786
498.863	880.237
497.815	908.693
496.767	879.909
495.718	855.904
494.669	967.778
493.62	865.118
492.571	931.676
491.522	907.679
490.472	864.635
489.422	897.815
488.372	947.65
487.322	918.906
486.272	844.951
485.221	949.5
484.17	904.117
483.12	939.631
482.068	887.132
481.017	932.147
479.966	886.801
478.914	979.341
477.862	907.86
476.81	938.581
475.757	895.643
474.705	916.854
473.652	930.932
472.599	909.389
471.546	973.316
470.493	987.375
469.439	1013.29
468.386	1013.11
467.332	991.567
466.278	1017.47
465.223	955.628
464.169	900.921
463.114	952.901
462.059	978.793
461.004	980.98
459.949	897.88
458.894	980.614
457.838	973.327
456.782	970.777
455.726	916.148
454.67	994.083
453.613	1019.93
452.557	988.98
451.5	974.603
450.443	882.182
449.386	974.239
448.328	997.699
447.271	1002.24
446.213	961.876
445.155	990.051
444.096	1056.01
443.038	1010.94
441.979	937.542
440.921	1008.2
439.862	970.241
438.802	974.781
437.743	1010
436.683	1052.28
435.624	1042.64
434.564	1103.77
433.503	1070.55
432.443	1058.56
431.382	1065.43
430.322	949.757
429.261	987.279
428.199	977.671
427.138	982.199
426.076	1024.4
425.015	981.832
423.953	1033.44
422.89	981.465
421.828	985.987
420.765	1035.21
419.703	1020.9
418.64	994.841
417.576	1015.82
416.513	1048.54
415.45	975.479
414.386	965.895
413.322	1017.41
412.258	1021.92
411.193	1017.03
410.129	953.431
409.064	1049.52
407.999	983.591
406.934	971.671
405.868	997.302
404.803	1006.5
403.737	1032.11
402.671	1085.86
401.605	1092.69
400.538	1120.62
399.472	1111.03
398.405	1033.49
397.338	972.377
396.271	1035.45
395.204	972.012
394.136	1023.35
393.068	1041.89
392	1060.42
390.932	1036.82
389.864	1045.98
388.795	1069.18
387.726	1052.61
386.657	1022.01
385.588	1019.48
384.519	1087.08
383.449	1098.56
382.379	1072.65
381.31	1056.1
380.239	983.479
379.169	1060.37
378.098	1062.51
377.028	1059.97
375.957	1015.42
374.885	1026.9
373.814	1045.37
372.742	1077.84
371.671	1040.32
370.599	1049.45
369.526	1023.6
368.454	1139.97
367.381	1181.71
366.309	1260.72
365.236	1269.81
364.163	1302.18
363.089	1395.1
362.015	1334.29
360.942	1282.82
359.868	1229.04
358.793	1196.23
357.719	1095.95
356.644	1132.97
355.57	1123.45
354.495	1069.75
353.419	1074.2
352.344	1022.86
351.268	1071.47
350.193	989.938
349.117	1073.39
348.04	1105.71
346.964	1017.25
345.887	1077.43
344.81	1095.8
343.733	1130.41
342.656	1060.58
341.579	1039.5
340.501	1043.94
339.423	1055.34
338.345	1052.82
337.267	1087.4
336.188	1068.65
335.11	1075.41
334.031	1077.52
332.952	1084.27
331.873	1047
330.793	1111.65
329.713	1039.66
328.633	1143.64
327.553	1078.62
326.473	1092.3
325.393	1059.7
324.312	1094.2
323.231	1066.24
322.15	1100.73
321.069	1098.21
319.987	1042.52
318.905	1100.1
317.823	1055.99
316.741	1113.55
315.659	1053.28
314.576	1080.8
313.494	1066.74
312.411	1119.64
311.328	1110.19
310.244	1031.52
309.161	1102.85
308.077	1148.78
306.993	1116.27
305.909	1129.9
304.824	1055.91
303.74	1111.03
302.655	1110.82
301.57	1133.66
300.485	1096.58
299.4	1158.56
298.314	1061.62
297.228	1102.87
296.142	1148.7
295.056	1146.18
293.969	1141.36
292.883	1088.23
291.796	1147.83
290.709	1182.11
289.622	1191.09
288.534	1154.08
287.447	1140.07
286.359	1160.54
285.271	1125.85
284.182	1146.32
283.094	1136.91
282.005	1175.73
280.916	1102.04
279.827	1131.68
278.738	1140.64
277.649	1149.6
276.559	1105.8
275.469	1151.46
274.379	1144.37
273.288	1199.18
272.198	1107.25
271.107	1077.25
270.016	1118.29
268.925	1143.28
267.834	1202.63
266.742	1174.92
265.65	1149.51
264.558	1195.08
263.466	1110.16
262.374	1242.68
261.281	1189.82
260.188	1169.01
259.095	1180.22
258.002	1173.14
256.909	1120.33
255.815	1161.26
254.721	1115.33
253.627	1117.41
252.533	1158.32
251.438	1196.93
250.344	1155.6
249.249	1178.21
248.154	1148.31
247.059	1241.67
245.963	1209.49
244.867	1209.26
243.771	1250.09
242.675	1220.21
241.579	1197.17
240.482	1187.83
239.386	1244.59
238.289	1226.12
237.192	1212.22
236.094	1255.27
234.997	1211.76
233.899	1234.3
232.801	1256.83
231.703	1263.42
230.604	1270.01
229.506	1331.21
228.407	1290.01
227.308	1264.74
226.208	1289.52
225.109	1234.7
224.009	1298.12
222.909	1316.06
221.809	1243.09
220.709	1306.47
219.609	1276.69
218.508	1333.23
217.407	1235.33
216.306	1219.2
215.204	1325.66
214.103	1316.33
213.001	1282.04
211.899	1254.58
210.797	1372.29
209.695	1340.28
208.592	1308.28
207.489	1407.78
206.386	1269.25
205.283	1343.79
204.18	1339
203.076	1347.81
201.972	1352.08
200.868	1329.18
199.764	1417.22
198.659	1493.91
197.555	1561.52
196.45	1780.7
195.345	1898
194.239	1856.92
193.134	1696.02
192.028	1530.65
190.922	1426.37
189.816	1367.34
188.709	1358.04
187.603	1303.56
186.496	1312.35
185.389	1323.39
184.282	1246.37
183.174	1273.22
182.067	1333.92
180.959	1311.1
179.851	1297.31
178.743	1299.32
177.634	1251.71
176.525	1287.55
175.417	1303.09
174.307	1271.28
173.198	1302.59
172.089	1252.77
170.979	1281.82
169.869	1317.61
168.759	1292.59
167.648	1348.63
166.538	1287.6
165.427	1368.37
164.316	1325.36
163.205	1322.86
162.093	1354.09
160.982	1392.07
159.87	1418.78
158.758	1310.61
157.645	1339.58
156.533	1332.58
155.42	1404.22
154.307	1426.42
153.194	1399.19
152.081	1378.72
150.967	1409.89
149.853	1411.86
148.739	1348.75
147.625	1478.64
146.511	1437.97
145.396	1424.24
144.281	1473.3
143.166	1455.09
142.051	1544.47
140.935	1436.6
139.82	1501.31
138.704	1536.87
137.588	1507.46
136.471	1565.39
135.355	1583.01
134.238	1567.03
133.121	1584.64
132.004	1638.04
130.886	1597.46
129.769	1668.73
128.651	1672.89
127.533	1652.44
126.415	1703.55
125.296	1685.34
124.178	1667.14
123.059	1742.79
121.94	1822.88
120.82	1780.09
119.701	1766.35
118.581	1850.86
117.461	1933.09
116.341	1959.51
115.22	1932.35
114.1	1969.91
112.979	2005.22
111.858	2013.76
110.737	2042.36
109.615	1992.93
108.494	1916.76
107.372	1916.4
106.25	1867.02
105.127	1826.56
104.005	1654.73
102.882	1656.64
101.759	1634.06
100.636	1562.52
