3201.26	54.7467
3200.67	46.3241
3200.08	46.3171
3199.48	37.8901
3198.89	67.35
3198.3	21.0437
3197.7	21.0405
3197.11	37.8672
3196.51	46.2752
3195.92	12.6186
3195.32	33.6445
3194.73	29.4345
3194.13	42.0429
3193.54	42.0366
3192.95	50.4363
3192.35	58.8334
3191.76	50.421
3191.16	46.2123
3190.56	16.8019
3189.97	54.598
3189.37	62.9882
3188.78	33.5886
3188.18	33.5835
3187.59	20.9865
3186.99	50.3601
3186.4	50.3525
3185.8	20.977
3185.2	41.9477
3184.61	46.1355
3184.01	37.7415
3183.42	20.9643
3182.82	0
3182.22	33.5328
3181.63	46.1006
3181.03	16.7613
3180.43	46.0867
3179.84	67.025
3179.24	29.319
3178.64	33.5024
3178.05	75.3689
3177.45	46.0518
3176.85	29.3013
3176.25	33.4821
3175.66	50.2155
3175.06	16.736
3174.46	46.017
3173.86	54.3755
3173.27	37.6389
3172.67	50.1776
3172.07	66.8933
3171.47	50.1624
3170.87	0
3170.28	37.6104
3169.68	50.1396
3169.08	54.3097
3168.48	37.5933
3167.88	25.0584
3167.28	33.4062
3166.68	37.5762
3166.09	8.34901
3165.49	37.5649
3164.89	62.5986
3164.29	50.0713
3163.69	33.3758
3163.09	58.3988
3162.49	37.5364
3161.89	58.3811
3161.29	29.1861
3160.69	41.6882
3160.09	66.691
3159.49	25.0053
3158.89	58.3369
3158.29	33.3303
3157.69	0
3157.09	4.16503
3156.49	49.9728
3155.89	16.6551
3155.29	33.3051
3154.69	24.975
3154.09	29.1331
3153.49	20.8062
3152.89	62.4092
3152.29	74.8797
3151.69	79.0277
3151.08	62.3808
3150.48	33.2647
3149.88	54.047
3149.28	45.7251
3148.68	24.9372
3148.08	58.1779
3147.48	49.8593
3146.87	66.4689
3146.27	58.1515
3145.67	24.9183
3145.07	45.6766
3144.47	53.9732
3143.86	33.2093
3143.26	41.5053
3142.66	45.6489
3142.06	4.14927
3141.45	24.8918
3140.85	37.3321
3140.25	74.6528
3139.64	49.761
3139.04	20.7306
3138.44	74.6189
3137.84	20.7243
3137.23	41.4423
3136.63	45.5797
3136.03	24.8579
3135.42	74.5622
3134.82	37.2755
3134.21	28.9876
3133.61	28.9832
3133.01	33.1187
3132.4	49.6704
3131.8	16.5543
3131.19	28.9656
3130.59	66.1971
3129.99	62.0504
3129.38	24.8164
3128.78	62.0315
3128.17	41.3481
3127.57	33.0734
3126.96	28.9348
3126.36	20.6646
3125.75	45.4552
3125.15	41.3167
3124.54	20.6552
3123.94	16.5216
3123.33	53.6872
3122.73	53.679
3122.12	49.5423
3121.52	49.5348
3120.91	16.5091
3120.3	24.7599
3119.7	45.3862
3119.09	33.0031
3118.49	37.1229
3117.88	20.6207
3117.27	53.6056
3116.67	20.6144
3116.06	53.5893
3115.45	49.4596
3114.85	41.21
3114.24	24.7223
3113.63	41.1975
3113.03	32.953
3112.42	53.5405
3111.81	28.8251
3111.21	32.938
3110.6	28.8163
3109.99	16.464
3109.38	49.3844
3108.78	20.5737
3108.17	32.9129
3107.56	49.3619
3106.95	20.5643
3106.34	24.6734
3105.74	32.8929
3105.13	20.5549
3104.52	49.3243
3103.91	28.7681
3103.3	24.6547
3102.7	45.1933
3102.09	49.2943
3101.48	32.8579
3100.87	65.7057
3100.26	16.4239
3099.65	36.9482
3099.04	16.4189
3098.43	-4.10411
3097.82	32.8279
3097.21	12.3086
3096.61	32.8179
3096	32.8129
3095.39	16.4039
3094.78	53.3047
3094.17	36.8976
3093.56	57.3876
3092.95	28.6894
3092.34	24.5872
3091.73	45.0696
3091.12	40.9661
3090.51	73.7278
3089.9	53.2398
3089.28	16.379
3088.67	32.753
3088.06	40.9349
3087.45	53.2073
3086.84	53.1992
3086.23	49.0995
3085.62	20.455
3085.01	53.1749
3084.4	28.6283
3083.79	28.6239
3083.17	4.08851
3082.56	36.791
3081.95	20.4363
3081.34	24.5198
3080.73	53.1182
3080.12	44.9393
3079.5	73.5258
3078.89	36.7573
3078.28	16.3341
3077.67	24.4974
3077.05	12.2468
3076.44	44.8982
3075.83	73.4586
3075.22	57.1257
3074.6	24.4787
3073.99	40.7917
3073.38	48.9425
3072.77	44.8571
3072.15	53.0049
3071.54	12.23
3070.93	48.9127
3070.31	24.4526
3069.7	32.5985
3069.08	44.8161
3068.47	65.1771
3067.86	48.8754
3067.24	36.6509
3066.63	44.7887
3066.02	48.853
3065.4	36.6341
3064.79	20.3492
3064.17	56.969
3063.56	20.343
3062.94	32.5438
3062.33	28.4715
3061.71	28.4671
3061.1	32.5289
3060.48	65.0479
3059.87	16.2595
3059.25	16.257
3058.64	36.5727
3058.02	77.1972
3057.41	24.3743
3056.79	56.8647
3056.18	48.7338
3055.56	40.6053
3054.95	48.7189
3054.33	36.5336
3053.71	52.7627
3053.1	36.5224
3052.48	0
3051.87	36.5113
3051.25	40.5619
3050.63	28.389
3050.02	36.4945
3049.4	52.7062
3048.78	36.4834
3048.17	32.4247
3047.55	32.4197
3046.93	44.5703
3046.31	64.8197
3045.7	28.3543
3045.08	48.5999
3044.46	12.1481
3043.85	48.585
3043.23	80.9627
3042.61	44.5227
3041.99	24.2814
3041.37	44.509
3040.76	24.2739
3040.14	48.5405
3039.52	48.533
3038.9	52.5694
3038.28	36.3886
3037.67	52.5533
3037.05	48.5034
3036.43	36.3719
3035.81	56.5699
3035.19	24.2405
3034.57	20.1974
3033.95	28.272
3033.33	28.2677
3032.71	44.4138
3032.1	36.333
3031.48	24.2183
3030.86	36.3219
3030.24	28.246
3029.62	52.4489
3029	44.373
3028.38	64.5327
3027.76	8.06535
3027.14	64.513
3026.52	24.1887
3025.9	40.3083
3025.28	72.5437
3024.66	48.3551
3024.04	8.05795
3023.42	64.4537
3022.8	48.3329
3022.17	44.2984
3021.55	56.3711
3020.93	60.3883
3020.31	52.3285
3019.69	40.2466
3019.07	16.0962
3018.45	64.3748
3017.83	36.2053
3017.2	32.1775
3016.58	52.2805
3015.96	72.3772
3015.34	52.2644
3014.72	56.2762
3014.1	36.172
3013.47	60.2774
3012.85	60.2682
3012.23	52.2244
3011.61	64.2663
3010.98	48.1924
3010.36	60.2312
3009.74	32.1184
3009.12	36.1277
3008.49	88.2985
3007.87	52.1684
3007.25	56.1727
3006.62	44.1289
3006	32.0889
3005.38	72.1889
3004.75	84.2074
3004.13	36.0834
3003.51	72.1556
3002.88	88.1767
3002.26	48.089
3001.63	60.102
3001.01	72.1114
3000.39	40.0557
2999.76	44.0545
2999.14	60.0652
2998.51	84.0783
2997.89	64.0498
2997.26	72.045
2996.64	48.0226
2996.02	60.0191
2995.39	96.0158
2994.77	80.0009
2994.14	87.9875
2993.51	39.9882
2992.89	71.9676
2992.26	43.9735
2991.64	79.9395
2991.01	55.9491
2990.39	95.8979
2989.76	47.9416
2989.14	83.8849
2988.51	87.866
2987.88	67.886
2987.26	99.817
2986.63	87.8255
2986.01	55.8804
2985.38	75.826
2984.75	95.7655
2984.13	79.7923
2983.5	67.813
2982.87	83.7562
2982.25	83.7433
2981.62	75.7561
2980.99	95.6772
2980.36	107.62
2979.74	111.589
2979.11	107.587
2978.48	127.491
2977.85	67.7193
2977.23	115.503
2976.6	95.5744
2975.97	103.523
2975.34	99.526
2974.71	111.452
2974.09	87.556
2973.46	91.5217
2972.83	95.4862
2972.2	79.5596
2971.57	95.4569
2970.94	87.4887
2970.32	63.6183
2969.69	91.4373
2969.06	123.223
2968.43	91.4092
2967.8	103.316
2967.17	127.139
2966.54	139.037
2965.91	111.212
2965.28	115.166
2964.65	115.149
2964.02	119.101
2963.39	59.5413
2962.76	103.189
2962.13	91.2686
2961.5	87.287
2960.87	83.3066
2960.24	83.2938
2959.61	115.007
2958.98	134.815
2958.35	126.865
2957.72	107.026
2957.09	103.046
2956.46	118.881
2955.83	91.1282
2955.2	118.845
2954.57	150.513
2953.93	106.927
2953.3	114.83
2952.67	91.0581
2952.04	130.628
2951.41	87.0722
2950.78	146.417
2950.14	122.655
2949.51	83.076
2948.88	150.305
2948.25	102.824
2947.62	146.304
2946.98	146.282
2946.35	134.4
2945.72	126.475
2945.09	146.214
2944.45	126.436
2943.82	138.268
2943.19	157.996
2942.55	154.023
2941.92	205.332
2941.29	161.871
2940.65	165.794
2940.02	177.609
2939.39	126.28
2938.75	142.043
2938.12	145.967
2937.49	149.888
2936.85	197.191
2936.22	161.672
2935.58	173.475
2934.95	157.68
2934.32	153.714
2933.68	149.75
2933.05	169.428
2932.41	157.583
2931.78	145.742
2931.14	110.274
2930.51	173.261
2929.87	149.611
2929.24	125.969
2928.6	94.4622
2927.97	169.219
2927.33	121.976
2926.7	121.957
2926.06	94.4039
2925.43	70.792
2924.79	133.698
2924.15	129.745
2923.52	149.381
2922.88	117.914
2922.25	133.615
2921.61	113.948
2920.97	94.2874
2920.34	109.985
2919.7	137.46
2919.06	86.39
2918.43	109.934
2917.79	94.2146
2917.15	129.525
2916.52	94.1855
2915.88	90.2472
2915.24	117.695
2914.6	117.677
2913.97	105.893
2913.33	105.877
2912.69	117.623
2912.05	90.1635
2911.42	117.586
2910.78	121.487
2910.14	113.632
2909.5	82.2724
2908.86	113.597
2908.23	97.913
2907.59	109.646
2906.95	105.713
2906.31	86.1235
2905.67	129.165
2905.03	129.145
2904.39	129.125
2903.75	101.719
2903.12	129.085
2902.48	121.243
2901.84	105.583
2901.2	97.7467
2900.56	129.006
2899.92	121.168
2899.28	152.414
2898.64	121.131
2898	82.0437
2897.36	132.812
2896.72	128.886
2896.08	89.8157
2895.44	124.942
2894.8	113.211
2894.16	93.6773
2893.52	128.786
2892.88	124.864
2892.24	159.958
2891.59	109.223
2890.95	148.208
2890.31	171.582
2889.67	140.364
2889.03	136.444
2888.39	187.094
2887.75	148.093
2887.11	159.76
2886.46	136.359
2885.82	163.606
2885.18	136.317
2884.54	190.814
2883.9	140.168
2883.25	136.254
2882.61	147.91
2881.97	136.211
2881.33	132.299
2880.68	128.388
2880.04	155.598
2879.4	136.127
2878.76	108.885
2878.11	124.42
2877.47	136.064
2876.83	139.93
2876.18	128.249
2875.54	66.0574
2874.9	128.209
2874.25	93.2286
2873.61	104.866
2872.97	112.616
2872.32	85.4199
2871.68	116.464
2871.03	100.919
2870.39	128.07
2869.75	89.2472
2869.1	128.031
2868.46	128.011
2867.81	120.234
2867.17	112.459
2866.52	108.565
2865.88	124.055
2865.23	81.3982
2864.59	139.518
2863.94	131.747
2863.3	116.229
2862.65	104.59
2862.01	92.9544
2861.36	73.5775
2860.71	69.6942
2860.07	61.9408
2859.42	73.5433
2858.78	77.4019
2858.13	73.5204
2857.48	96.7224
2856.84	77.3659
2856.19	81.2216
2855.55	81.209
2854.9	54.1309
2854.25	88.9156
2853.61	77.3059
2852.96	50.241
2852.31	77.2819
2851.66	92.7239
2851.02	77.2579
2850.37	100.42
2849.72	54.0638
2849.08	88.8052
2848.43	73.3494
2847.78	61.7584
2847.13	84.9046
2846.48	61.7392
2845.84	54.0134
2845.19	42.4325
2844.54	46.2828
2843.89	38.563
2843.24	57.8356
2842.59	88.6674
2841.95	61.6721
2841.3	57.8086
2840.65	73.2129
2840	69.3488
2839.35	77.0422
2838.7	53.9212
2838.05	57.7637
2837.4	57.7547
2836.75	46.1966
2836.1	50.0385
2835.45	50.0308
2834.81	30.7834
2834.16	65.4045
2833.51	50.0074
2832.86	34.6151
2832.21	65.374
2831.56	38.4493
2830.9	38.4433
2830.25	73.031
2829.6	61.4902
2828.95	65.3232
2828.3	23.0517
2827.65	34.5721
2827	69.1335
2826.35	57.6023
2825.7	57.5933
2825.05	46.0675
2824.4	61.4137
2823.74	72.9175
2823.09	65.2318
2822.44	76.7313
2821.79	49.8676
2821.14	65.2014
2820.49	53.6869
2819.83	53.6785
2819.18	26.8351
2818.53	26.8309
2817.88	45.9887
2817.23	80.4677
2816.57	53.6368
2815.92	72.7814
2815.27	61.2801
2814.61	49.7823
2813.96	45.9457
2813.31	49.7668
2812.66	42.1038
2812	42.0973
2811.35	45.9171
2810.7	61.2133
2810.04	99.4561
2809.39	68.8435
2808.73	72.6568
2808.08	45.8814
2807.43	49.6971
2806.77	57.3339
2806.12	30.5733
2805.46	26.7475
2804.81	30.5638
2804.15	68.7578
2803.5	34.3735
2802.85	42.0055
2802.19	41.999
2801.54	41.9924
2800.88	64.8873
2800.23	72.5098
2799.57	68.6828
2798.92	57.2267
2798.26	53.4033
2797.6	68.6507
2796.95	26.6933
2796.29	95.3184
2795.64	72.4307
2794.98	60.9848
2794.33	53.3534
2793.67	57.1554
2793.01	57.1465
2792.36	57.1376
2791.7	76.1715
2791.04	-3.80798
2790.39	64.7256
2789.73	41.8747
2789.07	45.6744
2788.42	19.028
2787.76	38.0501
2787.1	60.8707
2786.45	57.0574
2785.79	72.2614
2785.13	53.2369
2784.47	49.4266
2783.82	53.2203
2783.16	60.8137
2782.5	64.6045
2781.84	56.9951
2781.18	15.1963
2780.53	34.1864
2779.87	68.3621
2779.21	49.3649
2778.55	53.1539
2777.89	41.7573
2777.23	60.7283
2776.57	34.1544
2775.92	64.5037
2775.26	22.7625
2774.6	53.1041
2773.94	53.0958
2773.28	49.2956
2772.62	15.1655
2771.96	53.0709
2771.3	41.6921
2770.64	49.2648
2769.98	60.6241
2769.32	37.8841
2768.66	53.0295
2768	49.234
2767.34	45.4397
2766.68	45.4325
2766.02	52.9964
2765.36	45.4183
2764.7	30.2742
2764.04	26.4858
2763.38	37.8309
2762.72	18.9125
2762.06	60.5105
2761.39	56.7197
2760.73	71.8337
2760.07	22.6808
2759.41	64.2522
2758.75	68.0211
2758.09	79.3455
2757.43	26.4444
2756.76	56.6576
2756.1	26.4361
2755.44	56.6399
2754.78	45.3049
2754.12	56.6222
2753.45	37.7422
2752.79	26.4154
2752.13	15.0922
2751.46	75.449
2750.8	75.4372
2750.14	37.7127
2749.48	52.7895
2748.81	49.0112
2748.15	26.3865
2747.49	71.6093
2746.82	45.2199
2746.16	52.7482
2745.5	71.5757
2744.83	60.2648
2744.17	41.4256
2743.5	56.4806
2742.84	30.1183
2742.18	60.2271
2741.51	56.4541
2740.85	7.52603
2740.18	52.6739
2739.52	71.4749
2738.85	56.4187
2738.19	41.3672
2737.52	48.8809
2736.86	48.8732
2736.19	75.1778
2735.53	67.6494
2734.86	52.608
2734.2	41.3284
2733.53	67.6176
2732.87	56.3392
2732.2	71.3518
2731.54	33.7929
2730.87	56.3127
2730.2	37.5359
2729.54	90.0721
2728.87	56.2862
2728.2	52.5256
2727.54	45.0149
2726.87	71.2624
2726.21	63.7511
2725.54	56.2421
2724.87	71.2289
2724.2	56.2245
2723.54	48.7203
2722.87	37.4712
2722.2	44.9584
2721.54	56.1892
2720.87	67.4165
2720.2	63.6612
2719.53	78.6279
2718.87	44.9232
2718.2	29.9441
2717.53	86.0758
2716.86	18.7092
2716.19	37.4125
2715.52	41.1473
2714.86	26.1805
2714.19	52.3528
2713.52	56.0835
2712.85	29.9065
2712.18	18.6886
2711.51	48.5828
2710.84	33.629
2710.17	44.8316
2709.5	37.3538
2708.84	48.5523
2708.17	41.0763
2707.5	67.2052
2706.83	22.3982
2706.16	78.3815
2705.49	48.5142
2704.82	44.7753
2704.15	48.499
2703.48	44.7613
2702.81	37.2952
2702.14	44.7472
2701.47	48.4685
2700.79	48.4609
2700.12	37.2718
2699.45	33.5393
2698.78	55.8901
2698.11	48.4305
2697.44	22.349
2696.77	70.7608
2696.1	52.1313
2695.43	70.7385
2694.75	63.2824
2694.08	48.3848
2693.41	33.4919
2692.74	59.5318
2692.07	52.0822
2691.39	59.5131
2690.72	59.5038
2690.05	44.6208
2689.38	78.0741
2688.71	70.6274
2688.03	55.7497
2687.36	40.8767
2686.69	11.1464
2686.01	52.0085
2685.34	48.286
2684.67	40.851
2683.99	48.2708
2683.32	29.7004
2682.65	55.6796
2681.97	11.1342
2681.3	48.2404
2680.63	33.392
2679.95	40.806
2679.28	44.5086
2678.6	63.044
2677.93	18.5394
2677.26	14.8292
2676.58	48.1873
2675.91	25.9429
2675.23	51.8777
2674.56	14.8199
2673.88	33.3395
2673.21	62.9646
2672.53	33.329
2671.86	37.0263
2671.18	62.9349
2670.51	29.6117
2669.83	29.6071
2669.16	51.8042
2668.48	55.4958
2667.8	55.4871
2667.13	44.3827
2666.45	51.7716
2665.78	59.1582
2665.1	51.7553
2664.42	18.4811
2663.75	40.6521
2663.07	66.5111
2662.39	36.9448
2661.72	44.3267
2661.04	44.3198
2660.36	22.1564
2659.69	29.5372
2659.01	22.1494
2658.33	22.1459
2657.65	51.6656
2656.98	55.3473
2656.3	55.3386
2655.62	59.0185
2654.94	70.0735
2654.26	51.6249
2653.59	55.3037
2652.91	58.9813
2652.23	44.229
2651.55	66.3331
2650.87	40.5305
2650.19	36.8401
2649.52	47.8845
2648.84	66.2912
2648.16	33.1404
2647.48	44.1802
2646.8	58.8976
2646.12	40.4857
2645.44	44.1593
2644.76	44.1523
2644.08	29.4302
2643.4	55.173
2642.72	11.0329
2642.04	58.8326
2641.36	22.0587
2640.68	51.4623
2640	47.7789
2639.32	25.723
2638.64	66.1345
2637.96	29.3885
2637.28	66.1136
2636.6	58.7583
2635.92	40.39
2635.24	55.0685
2634.56	66.0718
2633.88	58.7212
2633.19	29.356
2632.51	84.3851
2631.83	55.0251
2631.15	14.671
2630.47	47.6733
2629.79	58.6656
2629.1	51.3243
2628.42	29.3235
2627.74	40.3135
2627.06	54.9642
2626.38	43.9644
2625.69	43.9575
2625.01	51.2756
2624.33	29.2957
2623.65	43.9367
2622.96	51.2513
2622.28	69.5444
2621.6	62.2141
2620.91	69.5224
2620.23	43.9019
2619.55	54.8688
2618.86	76.8041
2618.18	21.9406
2617.5	51.1865
2616.81	54.8341
2616.13	40.2053
2615.44	32.89
2614.76	51.1542
2614.07	54.7994
2613.39	51.138
2612.71	51.1299
2612.02	51.1218
2611.34	65.7176
2610.65	18.252
2609.97	40.1481
2609.28	40.1417
2608.6	47.4327
2607.91	29.1847
2607.23	80.2453
2606.54	32.8224
2605.85	40.11
2605.17	51.041
2604.48	54.6781
2603.8	51.0248
2603.11	69.237
2602.42	40.0782
2601.74	51.0006
2601.05	29.1386
2600.37	32.7757
2599.68	54.6175
2598.99	50.9683
2598.31	43.6802
2597.62	29.1155
2596.93	14.5554
2596.24	61.8508
2595.56	32.7394
2594.87	43.6456
2594.18	61.8215
2593.49	29.0878
2592.81	50.8957
2592.12	54.5224
2591.43	58.148
2590.74	69.0398
2590.06	25.4317
2589.37	50.8553
2588.68	32.6875
2587.99	61.7333
2587.3	25.4156
2586.61	47.1929
2585.92	50.815
2585.24	65.3233
2584.55	50.7989
2583.86	29.0234
2583.17	54.4102
2582.48	50.7748
2581.79	50.7667
2581.1	32.6306
2580.41	21.7503
2579.72	76.1138
2579.03	18.1195
2578.34	47.1031
2577.65	18.1137
2576.96	57.9547
2576.27	61.5671
2575.58	25.3471
2574.89	50.6862
2574.2	39.8186
2573.51	47.0509
2572.82	57.8996
2572.13	61.5085
2571.43	57.8812
2570.74	32.553
2570.05	43.3971
2569.36	39.7744
2568.67	50.6139
2567.98	32.5323
2567.29	65.0543
2566.59	32.522
2565.9	46.9688
2565.21	75.8606
2564.52	61.4012
2563.83	46.9464
2563.13	64.9924
2562.44	32.491
2561.75	32.4859
2561.06	43.3076
2560.36	36.0839
2559.67	46.9017
2558.98	54.1087
2558.28	39.6734
2557.59	32.4549
2556.9	32.4498
2556.2	61.2842
2555.51	61.2745
2554.82	25.2267
2554.12	75.668
2553.43	18.0133
2552.73	61.2356
2552.04	57.6243
2551.35	-3.60095
2550.65	46.8049
2549.96	43.1976
2549.26	79.183
2548.57	57.5785
2547.87	50.3732
2547.18	57.5602
2546.48	61.148
2545.79	57.5419
2545.09	32.3622
2544.4	53.9284
2543.7	43.1358
2543.01	64.6934
2542.31	75.4637
2541.61	46.7082
2540.92	57.4778
2540.22	39.5097
2539.53	57.4596
2538.83	57.4504
2538.13	68.2115
2537.44	50.2531
2536.74	25.1226
2536.04	43.0604
2535.35	53.8169
2534.65	43.0467
2533.95	50.2131
2533.26	50.2051
2532.56	35.8551
2531.86	39.4343
2531.16	60.9343
2530.47	43.0056
2529.77	35.8323
2529.07	71.6531
2528.37	42.985
2527.68	64.4673
2526.98	35.8094
2526.28	46.5449
2525.58	28.6384
2524.88	50.1093
2524.18	57.2586
2523.48	21.4686
2522.79	60.8179
2522.09	35.7695
2521.39	53.6458
2520.69	64.3646
2519.99	7.15049
2519.29	46.4708
2518.59	39.3151
2517.89	50.0295
2517.19	89.3241
2516.49	57.1583
2515.79	42.8619
2515.09	42.8551
2514.39	28.5655
2513.69	71.4024
2512.99	49.9737
2512.29	49.9657
2511.59	67.7998
2510.89	42.8141
2510.19	53.5091
2509.49	74.9008
2508.79	35.6613
2508.09	64.1802
2507.38	57.0399
2506.68	17.8221
2505.98	46.3302
2505.28	46.3228
2504.58	53.4408
2503.88	28.4972
2503.17	64.1085
2502.47	56.9763
2501.77	56.9672
2501.07	60.518
2500.36	56.949
2499.66	39.1462
2498.96	64.0472
2498.26	14.2304
2497.55	60.4697
2496.85	60.46
2496.15	32.0031
2495.45	53.33
2494.74	63.9858
2494.04	56.8672
2493.33	28.4291
2492.63	49.7429
2491.93	78.1549
2491.22	49.727
2490.52	56.8218
2489.82	56.8127
2489.11	67.4543
2488.41	85.1919
2487.7	49.6873
2487	31.9367
2486.29	63.8633
2485.59	35.4739
2484.88	39.0151
2484.18	28.3701
2483.47	63.8225
2482.77	38.9964
2482.06	81.5249
2481.36	38.9839
2480.65	46.0645
2479.95	56.6857
2479.24	0
2478.54	77.918
2477.83	74.3644
2477.12	21.2436
2476.42	63.7205
2475.71	88.4865
2475	56.6223
2474.3	38.9216
2473.59	60.142
2472.88	38.9092
2472.18	31.8297
2471.47	28.2885
2470.76	53.0325
2470.06	56.559
2469.35	31.8093
2468.64	7.06761
2467.93	45.9321
2467.23	35.3267
2466.52	31.789
2465.81	24.7208
2465.1	67.0886
2464.39	45.8953
2463.69	49.4178
2462.98	70.5856
2462.27	49.402
2461.56	56.4504
2460.85	81.1345
2460.14	70.5404
2459.43	52.8968
2458.73	49.3625
2458.02	42.3039
2457.31	38.7724
2456.6	21.1452
2455.89	38.76
2455.18	38.7538
2454.47	59.8826
2453.76	56.351
2453.05	21.1283
2452.34	35.2081
2451.63	70.405
2450.92	45.7559
2450.21	56.3059
2449.5	63.334
2448.79	35.1799
2448.08	42.2091
2447.36	59.7867
2446.65	66.8097
2445.94	21.0944
2445.23	38.6669
2444.52	42.1753
2443.81	31.6264
2443.1	38.6483
2442.39	35.1292
2441.67	42.1483
2440.96	31.6061
2440.25	52.6684
2439.54	28.0853
2438.83	52.6516
2438.11	35.0954
2437.4	35.0898
2436.69	24.5589
2435.98	52.6178
2435.26	52.6093
2434.55	45.5874
2433.84	49.0863
2433.12	21.0336
2432.41	63.0907
2431.7	52.5671
2430.98	56.0626
2430.27	31.5302
2429.56	42.0335
2428.84	45.5289
2428.13	52.525
2427.41	24.5077
2426.7	77.0119
2425.99	73.4995
2425.27	48.9918
2424.56	66.4782
2423.84	55.9727
2423.13	52.466
2422.41	59.4519
2421.7	52.4491
2420.98	59.4328
2420.27	59.4232
2419.55	59.4137
2418.84	52.4154
2418.12	38.4318
2417.41	52.3986
2416.69	27.9414
2415.97	59.366
2415.26	48.8818
2414.54	62.8379
2413.83	62.8278
2413.11	52.3481
2412.39	83.7434
2411.68	48.8425
2410.96	69.7638
2410.24	38.3639
2409.53	62.7672
2408.81	41.8381
2408.09	52.2892
2407.37	24.3977
2406.66	34.8483
2405.94	38.3269
2405.22	83.6089
2404.5	52.2472
2403.79	34.8258
2403.07	55.7124
2402.35	41.7776
2401.63	59.1754
2400.91	34.8034
2400.19	52.1968
2399.48	38.2715
2398.76	62.616
2398.04	31.3029
2397.32	45.2081
2396.6	59.1087
2395.88	20.8586
2395.16	24.3311
2394.44	52.1296
2393.72	55.5959
2393	41.6903
2392.28	38.2099
2391.56	52.096
2390.84	34.7251
2390.12	48.6073
2389.4	65.9564
2388.68	34.7083
2387.96	41.6433
2387.24	58.9852
2386.52	34.6916
2385.8	45.0918
2385.08	34.6804
2384.36	45.0772
2383.64	52.0038
2382.92	27.7309
2382.2	45.0555
2381.48	58.9092
2380.75	62.3644
2380.03	58.8902
2379.31	51.9536
2378.59	45.0192
2377.87	41.5495
2377.14	72.6998
2376.42	38.0747
2375.7	51.9117
2374.98	69.2045
2374.25	55.3546
2373.53	65.723
2372.81	69.171
2372.09	51.8699
2371.36	55.3189
2370.64	58.7669
2369.92	48.3885
2369.19	48.3807
2368.47	51.8281
2367.75	51.8197
2367.02	34.5409
2366.3	41.4424
2365.57	41.4357
2364.85	55.2387
2364.13	65.5854
2363.4	37.9643
2362.68	44.8597
2361.95	62.1034
2361.23	55.1941
2360.5	51.7362
2359.78	62.0734
2359.05	62.0633
2358.33	72.3956
2357.6	75.8307
2356.88	44.8018
2356.15	79.252
2355.43	58.5681
2354.7	44.7801
2353.97	37.8848
2353.25	27.5481
2352.52	61.9732
2351.8	61.9632
2351.07	24.0929
2350.34	75.7084
2349.62	48.1703
2348.89	51.6027
2348.16	48.1547
2347.44	41.2688
2346.71	65.3317
2345.98	48.1314
2345.25	54.9984
2344.53	24.0579
2343.8	27.4903
2343.07	65.2789
2342.34	41.2221
2341.62	54.954
2340.89	68.6813
2340.16	68.6702
2339.43	48.0614
2338.7	48.0536
2337.97	54.9096
2337.25	54.9007
2336.52	82.3377
2335.79	61.7433
2335.06	27.437
2334.33	41.1489
2333.6	51.4278
2332.87	44.5635
2332.14	37.7015
2331.41	92.5251
2330.68	75.3786
2329.95	61.6634
2329.22	65.0787
2328.49	51.3696
2327.76	58.2094
2327.03	34.2353
2326.3	41.0757
2325.57	41.0691
2324.84	44.4843
2324.11	54.741
2323.38	68.4152
2322.65	54.7233
2321.92	34.1965
2321.19	30.7719
2320.46	37.604
2319.72	78.6138
2318.99	41.0093
2318.26	44.4195
2317.53	30.747
2316.8	78.5629
2316.07	40.9827
2315.33	47.8054
2314.6	51.2118
2313.87	54.6171
2313.14	71.6733
2312.4	44.362
2311.67	47.7667
2310.94	47.759
2310.2	85.2701
2309.47	40.923
2308.74	44.3261
2308.01	54.5463
2307.27	40.9031
2306.54	102.241
2305.8	68.1497
2305.07	40.8832
2304.34	23.8447
2303.6	54.4933
2302.87	47.6739
2302.13	64.6898
2301.4	68.0835
2300.67	27.229
2299.93	85.0767
2299.2	47.6352
2298.46	61.2354
2297.73	57.824
2296.99	61.2155
2296.26	85.0078
2295.52	54.3961
2294.79	27.1937
2294.05	91.7637
2293.31	64.564
2292.58	44.1682
2291.84	61.146
2291.11	30.5681
2290.37	64.5221
2289.63	54.3256
2288.9	44.1324
2288.16	88.2504
2287.42	67.8739
2286.69	44.1109
2285.95	78.0297
2285.21	67.8409
2284.48	71.2213
2283.74	88.1645
2283	54.2463
2282.26	37.2882
2281.53	74.5644
2280.79	67.7748
2280.05	50.8228
2279.31	64.3651
2278.57	57.5805
2277.84	44.025
2277.1	37.2459
2276.36	47.3961
2275.62	37.2338
2274.88	37.2277
2274.14	43.9892
2273.4	77.8145
2272.67	54.123
2271.93	43.9678
2271.19	81.1581
2270.45	60.8587
2269.71	47.3269
2268.97	57.459
2268.23	33.7939
2267.49	77.7133
2266.75	43.9178
2266.01	67.5549
2265.27	67.5439
2264.53	91.1694
2263.79	54.0175
2263.05	50.6332
2262.31	77.6249
2261.57	37.1189
2260.82	47.2346
2260.08	80.9604
2259.34	53.9648
2258.6	74.1896
2257.86	70.8058
2257.12	43.825
2256.38	47.1885
2255.63	60.661
2254.89	57.2817
2254.15	74.1172
2253.41	77.4735
2252.67	47.1501
2251.92	50.5097
2251.18	80.8024
2250.44	43.7609
2249.7	57.2164
2248.95	50.4769
2248.21	60.5624
2247.47	63.9165
2246.72	73.9966
2245.98	33.6293
2245.24	57.1606
2244.49	63.8749
2243.75	47.0581
2243	60.4934
2242.26	73.9243
2241.52	67.193
2240.77	77.2593
2240.03	60.454
2239.28	53.7281
2238.54	60.4343
2237.79	26.8553
2237.05	63.7709
2236.3	53.6931
2235.56	97.3028
2234.81	53.6756
2234.07	63.7294
2233.32	70.4262
2232.58	97.2394
2231.83	67.0507
2231.09	67.0398
2230.34	80.4346
2229.59	50.2635
2228.85	63.6567
2228.1	83.7451
2227.35	43.5403
2226.61	56.9281
2225.86	63.6151
2225.11	40.1714
2224.37	73.6356
2223.62	70.2771
2222.87	53.5357
2222.13	40.1452
2221.38	73.5876
2220.63	43.4765
2219.88	63.5322
2219.14	63.5218
2218.39	60.1687
2217.64	43.4481
2216.89	63.4907
2216.14	36.7518
2215.4	43.4268
2214.65	73.4795
2213.9	60.1098
2213.15	56.7611
2212.4	36.7218
2211.65	60.0804
2210.9	73.4196
2210.15	56.724
2209.4	63.3871
2208.65	63.3767
2207.9	50.0261
2207.16	40.0143
2206.41	60.0117
2205.66	53.335
2204.91	76.6566
2204.15	79.9764
2203.4	49.9771
2202.65	76.619
2201.9	63.2836
2201.15	63.2733
2200.4	33.2963
2199.65	79.898
2198.9	39.9425
2198.15	59.9039
2197.4	63.2216
2196.65	53.2305
2195.89	63.2009
2195.14	66.5164
2194.39	76.4813
2193.64	66.4946
2192.89	53.187
2192.13	73.1202
2191.38	86.4006
2190.63	56.4835
2189.88	96.3384
2189.12	43.1791
2188.37	76.3813
2187.62	46.4854
2186.87	79.6762
2186.11	59.7473
2185.36	66.3751
2184.61	43.1367
2183.85	59.718
2183.1	43.1226
2182.35	59.6985
2181.59	39.7925
2180.84	59.6789
2180.08	53.0393
2179.33	66.2882
2178.57	59.6496
2177.82	46.3866
2177.07	59.6301
2176.31	86.1183
2175.56	52.9872
2174.8	46.3562
2174.05	52.9698
2173.29	52.9611
2172.53	59.5715
2171.78	72.7977
2171.02	69.4773
2170.27	69.466
2169.51	66.1472
2168.76	82.6705
2168	56.2067
2167.24	46.2803
2166.49	39.6623
2165.73	66.093
2164.97	75.9945
2164.22	92.4999
2163.46	49.5454
2162.7	95.7721
2161.95	36.3214
2161.19	29.7126
2160.43	59.4155
2159.67	52.8051
2158.92	92.3938
2158.16	56.087
2157.4	79.1687
2156.64	59.3668
2155.88	65.9523
2155.13	69.2386
2154.37	59.3376
2153.61	85.6958
2152.85	59.3181
2152.09	36.244
2151.33	59.2987
2150.57	46.1136
2149.82	79.0389
2149.06	39.513
2148.3	79.013
2147.54	65.8334
2146.78	59.2403
2146.02	85.5553
2145.26	42.7706
2144.5	82.2377
2143.74	65.7794
2142.98	59.1917
2142.22	59.182
2141.46	46.0229
2140.7	16.434
2139.94	75.5842
2139.17	32.8573
2138.41	65.7038
2137.65	75.5469
2136.89	78.8186
2136.13	82.0893
2135.37	78.7927
2134.61	65.6498
2133.84	65.639
2133.08	75.4725
2132.32	65.6175
2131.56	52.4854
2130.8	95.1141
2130.03	65.5851
2129.27	65.5744
2128.51	95.0672
2127.75	98.3292
2126.98	52.4336
2126.22	72.0844
2125.46	39.3123
2124.69	65.5097
2123.93	62.224
2123.17	58.9393
2122.4	78.5729
2121.64	58.92
2120.88	65.4559
2120.11	65.4451
2119.35	62.1626
2118.58	62.1524
2117.82	75.2247
2117.05	71.9422
2116.29	62.1217
2115.53	65.3805
2114.76	78.4437
2114	49.0192
2113.23	71.8831
2112.47	78.405
2111.7	94.7238
2110.93	58.7844
2110.17	81.6315
2109.4	75.0887
2108.64	62.0195
2107.87	68.5366
2107.1	78.3147
2106.34	65.2515
2105.57	55.4546
2104.81	61.9685
2104.04	71.7412
2103.27	65.2085
2102.51	55.4181
2101.74	42.3716
2100.97	84.7292
2100.2	81.457
2099.44	71.6703
2098.67	65.1441
2097.9	74.9034
2097.13	58.6104
2096.37	58.6007
2095.6	52.0809
2094.83	71.5995
2094.06	35.7938
2093.29	84.5897
2092.52	61.8053
2091.76	65.0475
2090.99	65.0368
2090.22	78.0313
2089.45	65.0154
2088.68	65.0047
2087.91	64.9939
2087.14	61.7341
2086.37	68.2211
2085.6	68.2099
2084.83	55.2084
2084.06	68.1874
2083.29	51.9437
2082.52	58.427
2081.75	90.8715
2080.98	81.1219
2080.21	48.6651
2079.44	77.8513
2078.67	90.8116
2077.9	38.9128
2077.13	55.1174
2076.36	110.217
2075.58	64.8226
2074.81	90.7366
2074.04	71.2813
2073.27	74.5091
2072.5	87.4527
2071.73	64.7691
2070.95	48.5688
2070.18	67.9851
2069.41	71.2107
2068.64	71.199
2067.86	55.0083
2067.09	71.1754
2066.32	80.8678
2065.55	71.1519
2064.77	74.3738
2064	80.8278
2063.23	80.8144
2062.45	84.0331
2061.68	58.1671
2060.9	96.9292
2060.13	61.3784
2059.36	64.5981
2058.58	90.4224
2057.81	93.6363
2057.03	103.306
2056.26	103.289
2055.48	67.772
2054.71	93.5744
2053.93	80.6543
2053.16	67.7384
2052.38	67.7272
2051.61	67.716
2050.83	74.1529
2050.06	70.9171
2049.28	109.581
2048.51	64.4488
2047.73	77.3257
2046.95	57.9847
2046.18	83.7418
2045.4	80.5077
2044.63	86.9339
2043.85	64.3848
2043.07	64.3742
2042.3	106.2
2041.52	67.5705
2040.74	77.2106
2039.96	102.93
2039.19	54.6728
2038.41	64.3103
2037.63	80.3745
2036.85	80.3612
2036.08	96.4175
2035.3	57.8409
2034.52	67.4699
2033.74	80.308
2032.96	70.6593
2032.19	57.8026
2031.41	80.2681
2030.63	86.6752
2029.85	96.2898
2029.07	70.6008
2028.29	60.9633
2027.51	89.8258
2026.73	86.6034
2025.95	112.245
2025.17	83.3682
2024.39	92.9723
2023.61	80.1352
2022.83	92.9414
2022.05	76.9043
2021.27	99.3183
2020.49	96.0985
2019.71	80.0688
2018.93	80.0555
2018.15	92.849
2017.37	76.8278
2016.59	86.417
2015.81	89.6028
2015.03	73.5901
2014.24	76.7769
2013.46	83.1612
2012.68	102.335
2011.9	105.516
2011.12	70.3321
2010.33	95.8915
2009.55	83.0922
2008.77	89.4691
2007.99	108.623
2007.2	89.4394
2006.42	70.2621
2005.64	86.2165
2004.86	57.4681
2004.07	92.5722
2003.29	86.1736
2002.51	57.4395
2001.72	86.145
2000.94	102.081
2000.15	118.011
1999.37	92.48
1998.59	98.8415
1997.8	108.389
1997.02	79.6844
1996.23	108.353
1995.45	127.453
1994.66	111.503
1993.88	114.669
1993.09	101.911
1992.31	108.263
1991.52	117.796
1990.74	114.593
1989.95	73.2001
1989.17	120.919
1988.38	98.6283
1987.6	95.4308
1986.81	76.332
1986.02	108.119
1985.24	104.922
1984.45	120.799
1983.66	130.314
1982.88	108.047
1982.09	114.384
1981.3	98.4808
1980.52	98.4644
1979.73	95.2723
1978.94	117.483
1978.15	107.939
1977.37	98.3989
1976.58	123.772
1975.79	92.02
1975	133.248
1974.22	120.538
1973.43	76.1165
1972.64	85.6168
1971.85	139.5
1971.06	110.948
1970.27	82.4046
1969.48	107.742
1968.69	117.229
1967.91	117.21
1967.12	88.6844
1966.33	133.004
1965.54	113.985
1964.75	113.966
1963.96	129.773
1963.17	113.928
1962.38	129.73
1961.59	136.035
1960.8	126.523
1960.01	126.502
1959.22	154.939
1958.43	110.653
1957.63	116.956
1956.84	101.134
1956.05	104.277
1955.26	132.695
1954.47	135.831
1953.68	107.384
1952.89	107.366
1952.09	107.348
1951.3	132.584
1950.51	129.406
1949.72	129.384
1948.93	132.518
1948.13	104.104
1947.34	123.011
1946.55	138.759
1945.76	116.664
1944.96	141.865
1944.17	100.865
1943.38	135.515
1942.58	107.133
1941.79	122.868
1941	113.397
1940.2	125.976
1939.41	138.551
1938.61	119.637
1937.82	116.47
1937.02	157.365
1936.23	113.284
1935.44	119.558
1934.64	125.829
1933.85	141.534
1933.05	128.932
1932.26	125.766
1931.46	119.458
1930.67	125.724
1929.87	150.844
1929.07	128.824
1928.28	141.369
1927.48	166.473
1926.69	128.76
1925.89	135.018
1925.09	128.717
1924.3	134.973
1923.5	128.674
1922.7	172.582
1921.91	144.317
1921.11	163.114
1920.31	159.951
1919.52	178.738
1918.72	103.463
1917.92	125.389
1917.12	141.039
1916.33	119.079
1915.53	144.125
1914.73	156.631
1913.93	144.076
1913.13	156.579
1912.33	184.732
1911.54	175.309
1910.74	153.37
1909.94	172.121
1909.14	150.19
1908.34	168.935
1907.54	137.628
1906.74	175.134
1905.94	150.089
1905.14	162.57
1904.34	162.542
1903.54	187.518
1902.74	174.987
1901.94	184.331
1901.14	146.815
1900.34	140.544
1899.54	159.257
1898.74	165.474
1897.94	124.865
1897.14	124.844
1896.34	168.512
1895.54	156.003
1894.73	131.021
1893.93	187.141
1893.13	168.399
1892.33	155.899
1891.53	187.047
1890.73	187.016
1889.92	186.985
1889.12	158.91
1888.32	180.691
1887.52	165.087
1886.71	183.745
1885.91	171.259
1885.11	143.211
1884.3	174.315
1883.5	146.275
1882.7	171.144
1881.89	199.116
1881.09	167.976
1880.29	177.279
1879.48	161.701
1878.68	195.874
1877.87	183.407
1877.07	180.268
1876.27	192.668
1875.46	164.672
1874.66	208.136
1873.85	177.041
1873.05	170.8
1872.24	186.297
1871.44	173.848
1870.63	195.546
1869.82	164.479
1869.02	167.554
1868.21	179.936
1867.41	179.905
1866.6	179.875
1865.79	189.147
1864.99	195.316
1864.18	198.383
1863.38	185.953
1862.57	170.428
1861.76	164.203
1860.95	195.152
1860.15	195.12
1859.34	207.473
1858.53	198.15
1857.72	195.021
1856.92	154.753
1856.11	191.861
1855.3	167.077
1854.49	191.797
1853.68	191.765
1852.88	207.195
1852.07	188.608
1851.26	188.577
1850.45	197.818
1849.64	160.7
1848.83	191.572
1848.02	203.897
1847.21	206.951
1846.4	188.387
1845.59	219.233
1844.78	197.585
1843.97	203.725
1843.16	209.864
1842.35	166.628
1841.54	228.304
1840.73	231.351
1839.92	246.732
1839.11	212.771
1838.3	209.652
1837.49	221.947
1836.68	197.253
1835.87	206.465
1835.06	203.349
1834.25	206.395
1833.43	209.441
1832.62	184.769
1831.81	200.133
1831	224.727
1830.19	184.676
1829.37	221.574
1828.56	227.691
1827.75	184.583
1826.94	255.297
1826.12	236.802
1825.31	212.163
1824.5	196.756
1823.68	184.428
1822.87	208.983
1822.06	218.166
1821.24	218.129
1820.43	224.236
1819.61	196.557
1818.8	202.666
1817.99	187.281
1817.17	257.851
1816.36	205.632
1815.54	297.656
1814.73	217.836
1813.91	193.258
1813.1	239.232
1812.28	239.191
1811.47	282.076
1810.65	214.587
1809.84	266.655
1809.02	189.998
1808.2	238.99
1807.39	257.33
1806.57	220.532
1805.75	208.245
1804.94	232.705
1804.12	254.095
1803.3	226.505
1802.49	232.587
1801.67	223.369
1800.85	241.687
1800.04	263.058
1799.22	229.372
1798.4	210.987
1797.58	223.18
1796.77	226.199
1795.95	244.499
1795.13	238.346
1794.31	241.361
1793.49	213.828
1792.67	265.713
1791.86	229.024
1791.04	210.667
1790.22	238.105
1789.4	231.96
1788.58	222.766
1787.76	271.546
1786.94	274.551
1786.12	228.754
1785.3	247.012
1784.48	216.48
1783.66	234.735
1782.84	243.839
1782.02	268.178
1781.2	262.038
1780.38	265.041
1779.56	277.18
1778.74	228.406
1777.92	246.637
1777.1	240.507
1776.27	243.51
1775.45	292.162
1774.63	197.785
1773.81	279.894
1772.99	252.471
1772.17	249.387
1771.34	282.793
1770.52	243.222
1769.7	279.658
1768.88	212.747
1768.05	224.866
1767.23	270.401
1766.41	270.356
1765.58	258.161
1764.76	288.484
1763.94	306.652
1763.11	291.422
1762.29	291.373
1761.47	264.012
1760.64	306.445
1759.82	254.822
1758.99	251.746
1758.17	266.866
1757.35	269.853
1756.52	291.028
1755.7	312.196
1754.87	296.991
1754.05	290.88
1753.22	309.008
1752.4	321.072
1751.57	324.046
1750.74	281.6
1749.92	320.909
1749.09	332.962
1748.27	308.694
1747.44	314.694
1746.61	278.336
1745.79	338.786
1744.96	305.461
1744.13	293.314
1743.31	314.428
1742.48	284.146
1741.65	308.276
1740.83	341.464
1740	302.129
1739.17	283.953
1738.34	277.865
1737.51	292.916
1736.69	323.059
1735.86	323.005
1735.03	280.695
1734.2	304.789
1733.37	319.823
1732.54	286.585
1731.72	346.86
1730.89	253.316
1730.06	319.606
1729.23	304.479
1728.4	328.54
1727.57	310.403
1726.74	343.494
1725.91	280.172
1725.08	304.221
1724.25	328.262
1723.42	319.173
1722.59	307.077
1721.76	304.014
1720.93	264.839
1720.1	312.938
1719.27	303.86
1718.43	294.784
1717.6	312.779
1716.77	324.754
1715.94	318.686
1715.11	279.554
1714.28	267.485
1713.45	276.454
1712.61	342.505
1711.78	333.435
1710.95	312.354
1710.12	285.275
1709.28	315.251
1708.45	330.207
1707.62	363.165
1706.78	306.087
1705.95	375.043
1705.12	317.983
1704.28	329.926
1703.45	308.878
1702.62	293.834
1701.78	311.771
1700.95	293.734
1700.11	284.694
1699.28	323.597
1698.45	347.508
1697.61	338.464
1696.78	344.396
1695.94	299.423
1695.11	341.285
1694.27	314.288
1693.44	359.125
1692.6	344.103
1691.76	338.061
1690.93	329.03
1690.09	328.974
1689.26	334.898
1688.42	328.862
1687.58	352.719
1686.75	328.75
1685.91	346.623
1685.07	370.465
1684.24	301.698
1683.4	382.285
1682.56	364.304
1681.73	379.17
1680.89	361.195
1680.05	390.979
1679.21	420.753
1678.37	384.879
1677.54	453.423
1676.7	411.59
1675.86	435.377
1675.02	417.413
1674.18	408.399
1673.34	390.447
1672.51	426.14
1671.67	411.17
1670.83	428.974
1669.99	411.03
1669.15	455.629
1668.31	449.597
1667.47	446.543
1666.63	434.561
1665.79	437.463
1664.95	449.291
1664.11	475.988
1663.27	487.805
1662.43	487.722
1661.59	451.958
1660.75	466.745
1659.9	487.472
1659.06	451.727
1658.22	484.335
1657.38	522.873
1656.54	457.436
1655.7	501.906
1654.85	445.403
1654.01	492.828
1653.17	477.903
1652.33	454.078
1651.49	471.805
1650.64	471.724
1649.8	456.812
1648.96	498.256
1648.11	477.414
1647.27	530.699
1646.43	432.786
1645.58	441.604
1644.74	497.831
1643.9	500.709
1643.05	420.642
1642.21	453.149
1641.36	485.646
1640.52	444.112
1639.68	491.401
1638.83	488.357
1637.99	494.192
1637.14	473.396
1636.3	452.608
1635.45	470.277
1634.61	467.239
1633.76	490.813
1632.91	381.35
1632.07	475.867
1631.22	499.427
1630.38	493.433
1629.53	460.852
1628.68	448.959
1627.84	445.929
1626.99	463.569
1626.14	419.207
1625.3	448.652
1624.45	401.357
1623.6	424.893
1622.75	507.425
1621.91	445.396
1621.06	489.556
1620.21	459.986
1619.36	424.53
1618.52	442.143
1617.67	424.385
1616.82	444.939
1615.97	421.294
1615.12	515.481
1614.27	415.259
1613.42	424.022
1612.57	429.838
1611.72	409.159
1610.88	391.431
1610.03	391.364
1609.18	376.586
1608.33	423.587
1607.48	420.573
1606.63	411.68
1605.78	367.508
1604.93	417.418
1604.07	376.2
1603.22	414.336
1602.37	396.637
1601.52	402.444
1600.67	402.375
1599.82	381.751
1598.97	369.941
1598.12	399.233
1597.26	425.58
1596.41	366.816
1595.56	375.556
1594.71	375.491
1593.86	407.69
1593	369.498
1592.15	351.842
1591.3	395.755
1590.45	407.411
1589.59	375.105
1588.74	375.041
1587.89	357.4
1587.03	371.983
1586.18	360.206
1585.32	386.496
1584.47	389.357
1583.62	398.071
1582.76	398.003
1581.91	374.527
1581.05	386.165
1580.2	380.248
1579.34	386.032
1578.49	347.954
1577.63	426.828
1576.78	397.525
1575.92	382.845
1575.07	382.779
1574.21	409.007
1573.36	382.648
1572.5	373.821
1571.64	417.556
1570.79	414.565
1569.93	376.547
1569.07	379.401
1568.22	306.387
1567.36	379.271
1566.5	396.707
1565.65	370.391
1564.79	414.067
1563.93	326.532
1563.07	399.35
1562.22	387.623
1561.36	407.954
1560.5	428.279
1559.64	422.379
1558.78	407.744
1557.92	430.97
1557.07	372.667
1556.21	375.514
1555.35	424.927
1554.49	439.403
1553.63	413.143
1552.77	392.709
1551.91	418.818
1551.05	398.39
1550.19	389.599
1549.33	398.253
1548.47	433.062
1547.61	418.458
1546.75	389.331
1545.89	438.649
1545.03	418.242
1544.17	383.322
1543.31	423.905
1542.45	432.541
1541.58	403.442
1540.72	446.902
1539.86	432.318
1539	394.531
1538.14	400.264
1537.28	429.195
1536.41	408.824
1535.55	423.249
1534.69	399.988
1533.83	373.838
1532.96	396.953
1532.1	440.339
1531.24	393.92
1530.37	425.708
1529.51	393.784
1528.65	416.876
1527.78	413.91
1526.92	416.733
1526.05	428.235
1525.19	416.589
1524.33	428.087
1523.46	482.961
1522.6	430.831
1521.73	485.686
1520.87	422.011
1520	421.939
1519.14	450.761
1518.27	433.349
1517.41	467.936
1516.54	421.648
1515.67	398.475
1514.81	433.05
1513.94	406.997
1513.08	447.331
1512.21	507.85
1511.34	447.177
1510.48	438.446
1509.61	392.226
1508.74	449.829
1507.88	443.985
1507.01	461.204
1506.14	432.304
1505.27	400.533
1504.41	432.155
1503.54	437.841
1502.67	449.286
1501.8	417.534
1500.93	426.099
1500.06	451.932
1499.2	434.586
1498.33	446.021
1497.46	440.19
1496.59	411.348
1495.72	440.038
1494.85	434.211
1493.98	451.386
1493.11	436.935
1492.24	439.734
1491.37	477.015
1490.5	428.09
1489.63	433.761
1488.76	430.814
1487.89	450.841
1487.02	436.407
1486.15	485.132
1485.28	424.776
1484.41	418.963
1483.54	427.498
1482.66	464.717
1481.79	476.109
1480.92	513.306
1480.05	421.469
1479.18	441.462
1478.3	504.441
1477.43	435.578
1476.56	461.289
1475.69	521.367
1474.81	426.76
1473.94	504.005
1473.07	458.107
1472.19	472.341
1471.32	489.433
1470.45	489.348
1469.57	512.153
1468.7	520.646
1467.83	574.9
1466.95	517.606
1466.08	566.123
1465.2	546.014
1464.33	563.069
1463.45	588.691
1462.58	580.018
1461.7	582.774
1460.83	548.398
1459.95	591.139
1459.08	488.248
1458.2	605.209
1457.32	562.29
1456.45	579.315
1455.57	582.068
1454.7	533.47
1453.82	613.242
1452.94	638.801
1452.07	584.516
1451.19	587.266
1450.31	601.415
1449.43	578.513
1448.56	589.81
1447.68	555.522
1446.8	541.184
1445.92	586.655
1445.05	589.401
1444.17	566.524
1443.29	563.579
1442.41	580.557
1441.53	620.291
1440.65	620.184
1439.77	603.01
1438.9	600.062
1438.02	617.018
1437.14	591.325
1436.26	571.325
1435.38	579.752
1434.5	633.639
1433.62	653.415
1432.74	653.302
1431.86	621.949
1430.98	613.323
1430.1	621.733
1429.22	667.041
1428.33	618.679
1427.45	646.947
1426.57	609.954
1425.69	669.414
1424.81	629.594
1423.93	637.991
1423.05	629.375
1422.16	705.798
1421.28	665.999
1420.4	643.215
1419.52	730.928
1418.63	676.983
1417.75	640.048
1416.87	679.579
1415.99	679.461
1415.1	653.868
1414.22	650.924
1413.34	636.663
1412.45	693.135
1411.57	622.298
1410.68	616.534
1409.8	653.186
1408.92	633.283
1408.03	686.879
1407.15	647.193
1406.26	672.512
1405.38	646.968
1404.49	627.083
1403.61	632.622
1402.72	640.983
1401.84	666.281
1400.95	623.824
1400.06	759.183
1399.18	694.151
1398.29	719.421
1397.41	634.673
1396.52	707.89
1395.63	665.47
1394.75	727.379
1393.86	761.078
1392.97	715.852
1392.09	749.542
1391.2	774.767
1390.31	794.35
1389.42	746.334
1388.54	836.312
1387.65	793.936
1386.76	779.723
1385.87	900.606
1384.98	945.472
1384.09	903.106
1383.21	919.826
1382.32	1001.23
1381.43	942.001
1380.54	919.346
1379.65	924.807
1378.76	944.32
1377.87	921.675
1376.98	974.895
1376.09	985.961
1375.2	918.385
1374.31	943.497
1373.42	946.14
1372.53	1018.96
1371.64	959.843
1370.75	928.809
1369.86	897.786
1368.96	872.384
1368.07	928.324
1367.18	914.141
1366.29	869.124
1365.4	882.988
1364.51	874.426
1363.61	874.273
1362.72	837.699
1361.83	829.15
1360.94	823.404
1360.04	820.46
1359.15	839.915
1358.26	792.181
1357.36	772.452
1356.47	727.545
1355.58	744.205
1354.68	774.845
1353.79	755.132
1352.9	724.241
1352	726.91
1351.11	757.532
1350.21	729.451
1349.32	765.65
1348.42	821.394
1347.53	762.59
1346.63	765.249
1345.74	767.908
1344.84	751.022
1343.95	750.891
1343.05	823.324
1342.15	775.743
1341.26	758.868
1340.36	800.577
1339.47	817.171
1338.57	828.182
1337.67	833.614
1336.78	830.68
1335.88	850.044
1334.98	808.098
1334.08	913.827
1333.19	830.1
1332.29	841.095
1331.39	840.948
1330.49	907.619
1329.6	868.49
1328.7	924.001
1327.8	887.665
1326.9	829.084
1326	965.241
1325.1	812.107
1324.2	845.333
1323.3	839.625
1322.4	828.359
1321.51	800.422
1320.61	847.521
1319.71	780.694
1318.81	800.002
1317.91	769.311
1317.01	777.507
1316.1	785.7
1315.2	793.89
1314.3	807.628
1313.4	790.837
1312.5	762.955
1311.6	737.856
1310.7	721.087
1309.8	720.96
1308.9	706.972
1307.99	731.796
1307.09	676.238
1306.19	720.455
1305.29	689.854
1304.38	664.803
1303.48	686.842
1302.58	686.722
1301.68	736.436
1300.77	631.12
1299.87	631.009
1298.97	697.309
1298.06	702.72
1297.16	702.597
1296.25	713.536
1295.35	713.411
1294.45	774.109
1293.54	749.096
1292.64	812.529
1291.73	804.097
1290.83	784.617
1289.92	839.725
1289.02	795.389
1288.11	869.804
1287.21	839.283
1286.3	847.416
1285.39	803.11
1284.49	769.857
1283.58	802.829
1282.68	769.587
1281.77	813.578
1280.86	783.104
1279.96	760.911
1279.05	708.405
1278.14	733.085
1277.23	702.646
1276.33	680.482
1275.42	680.363
1274.51	652.703
1273.6	713.166
1272.7	682.758
1271.79	677.133
1270.88	671.509
1269.97	638.372
1269.06	635.509
1268.15	632.647
1267.24	635.286
1266.33	613.177
1265.43	624.066
1264.52	648.694
1263.61	577.127
1262.7	601.755
1261.79	552.198
1260.88	612.53
1259.97	587.706
1259.06	560.145
1258.14	568.282
1257.23	554.458
1256.32	521.428
1255.41	573.47
1254.5	534.962
1253.59	554.068
1252.68	534.774
1251.77	529.196
1250.85	504.429
1249.94	507.082
1249.03	471.366
1248.12	490.463
1247.2	501.335
1246.29	542.333
1245.38	465.557
1244.47	459.999
1243.55	443.492
1242.64	435.203
1241.73	435.126
1240.81	437.786
1239.9	415.823
1238.98	454.043
1238.07	456.698
1237.16	453.883
1236.24	448.336
1235.33	390.858
1234.41	404.453
1233.5	423.508
1232.58	412.506
1231.67	404.239
1230.75	393.245
1229.84	409.558
1228.92	417.675
1228	384.849
1227.09	387.51
1226.17	384.713
1225.25	420.109
1224.34	425.49
1223.42	392.691
1222.5	376.262
1221.59	359.839
1220.67	389.757
1219.75	438.74
1218.84	400.518
1217.92	414.068
1217	337.733
1216.08	370.351
1215.16	370.286
1214.25	389.276
1213.33	400.095
1212.41	372.811
1211.49	364.583
1210.57	389.002
1209.65	369.894
1208.73	386.145
1207.81	380.639
1206.89	424.066
1205.97	445.734
1205.05	399.46
1204.13	391.238
1203.21	369.438
1202.29	363.94
1201.37	391.031
1200.45	371.957
1199.53	369.177
1198.61	379.968
1197.69	336.483
1196.77	417.817
1195.84	341.79
1194.92	306.472
1194	306.417
1193.08	355.165
1192.16	325.284
1191.23	341.488
1190.31	357.686
1189.39	335.949
1188.46	289.84
1187.54	300.622
1186.62	322.231
1185.69	362.785
1184.77	330.238
1183.85	357.244
1182.92	327.415
1182	354.412
1181.08	343.529
1180.15	324.537
1179.23	327.184
1178.3	337.94
1177.38	321.662
1176.45	343.226
1175.53	329.654
1174.6	370.12
1173.68	329.538
1172.75	321.378
1171.82	369.924
1170.9	361.759
1169.97	377.891
1169.05	342.74
1168.12	391.248
1167.19	383.085
1166.27	409.991
1165.34	391.04
1164.41	385.578
1163.48	423.252
1162.56	479.781
1161.63	495.865
1160.7	458.055
1159.77	511.853
1158.84	457.893
1157.92	508.979
1156.99	535.814
1156.06	565.332
1155.13	503.325
1154.2	610.88
1153.27	556.96
1152.34	554.171
1151.41	575.59
1150.48	613.137
1149.55	575.386
1148.62	540.337
1147.69	561.743
1146.76	607.327
1145.83	515.868
1144.9	604.426
1143.97	531.8
1143.04	555.874
1142.11	555.776
1141.18	475.144
1140.25	568.998
1139.32	574.264
1138.38	533.917
1137.45	498.95
1136.52	549.82
1135.59	530.952
1134.65	587.16
1133.72	552.208
1132.79	562.831
1131.86	570.77
1130.92	597.46
1129.99	562.531
1129.06	583.857
1128.12	610.531
1127.19	586.327
1126.26	599.607
1125.32	604.853
1124.39	596.718
1123.45	609.989
1122.52	641.98
1121.58	625.819
1120.65	652.448
1119.71	681.74
1118.78	681.619
1117.84	705.551
1116.91	681.377
1115.97	724.001
1115.03	707.846
1114.1	624.93
1113.16	742.306
1112.23	699.459
1111.29	702.004
1110.35	733.904
1109.42	744.447
1108.48	722.972
1107.54	720.176
1106.6	704.047
1105.67	709.255
1104.73	701.131
1103.79	653.028
1102.85	684.892
1101.91	647.467
1100.98	628.704
1100.04	564.667
1099.1	585.871
1098.16	545.828
1097.22	521.772
1096.28	473.77
1095.34	465.702
1094.4	513.512
1093.46	468.197
1092.52	460.134
1091.58	502.6
1090.64	441.359
1089.7	446.597
1088.76	441.202
1087.82	454.41
1086.88	449.015
1085.94	403.776
1085	403.704
1084.06	443.464
1083.11	435.42
1082.17	400.834
1081.23	406.071
1080.29	437.841
1079.35	400.62
1078.4	413.811
1077.46	403.129
1076.52	434.877
1075.57	379.124
1074.63	426.77
1073.69	429.344
1072.74	370.972
1071.8	455.685
1070.86	445.008
1069.91	399.906
1068.97	442.201
1068.02	413
1067.08	410.28
1066.14	465.783
1065.19	465.7
1064.25	473.554
1063.3	481.404
1062.36	473.385
1061.41	475.944
1060.46	473.216
1059.52	454.629
1058.57	467.761
1057.63	523.165
1056.68	459.669
1055.73	462.228
1054.79	459.505
1053.84	483.186
1052.89	491.019
1051.95	483.013
1051	485.566
1050.05	506.587
1049.1	519.687
1048.16	514.319
1047.21	527.412
1046.26	471.95
1045.31	516.679
1044.36	495.502
1043.41	505.954
1042.46	490.055
1041.52	434.649
1040.57	463.543
1039.62	458.193
1038.67	479.174
1037.72	436.971
1036.77	410.574
1035.82	392.08
1034.87	423.581
1033.92	365.635
1032.97	389.24
1032.02	431.243
1031.07	368.068
1030.11	383.774
1029.16	386.333
1028.21	328.456
1027.26	370.432
1026.31	409.767
1025.36	393.936
1024.4	343.976
1023.45	304.535
1022.5	367.476
1021.55	322.796
1020.59	346.353
1019.64	327.927
1018.69	304.262
1017.73	333.055
1016.78	356.593
1015.83	322.45
1014.87	322.392
1013.92	314.472
1012.97	327.517
1012.01	298.642
1011.06	303.827
1010.1	332.578
1009.15	290.626
1008.19	332.459
1007.24	355.955
1006.28	334.957
1005.33	358.444
1004.37	298.214
1003.41	306.007
1002.46	308.567
1001.5	303.283
1000.55	326.754
999.589	297.947
998.633	326.637
997.676	337.029
996.719	279.501
995.761	295.121
994.804	279.401
993.846	305.458
992.889	294.963
991.931	292.3
990.973	289.638
990.014	318.284
989.056	276.492
988.097	255.579
987.139	250.318
986.18	242.452
985.221	276.294
984.261	297.093
983.302	315.279
982.342	273.54
981.382	268.281
980.422	252.608
979.462	278.6
978.502	278.55
977.541	281.103
976.581	262.836
975.62	275.798
974.659	301.762
973.698	267.896
972.736	291.252
971.775	265.2
970.813	254.754
969.851	252.109
968.889	298.839
967.927	257.215
966.964	280.548
966.002	301.275
965.039	285.64
964.076	316.744
963.113	301.112
962.15	324.416
961.186	350.306
960.223	378.782
959.259	396.871
958.295	464.23
957.331	453.774
956.367	515.913
955.402	495.084
954.437	474.262
953.473	458.63
952.508	484.454
951.542	417.022
950.577	380.691
949.611	398.747
948.646	367.61
947.68	367.544
946.714	385.592
945.748	269.09
944.781	323.367
943.815	302.617
942.848	346.525
941.881	305.094
940.914	284.358
939.947	268.799
938.979	273.919
938.012	240.282
937.044	247.988
936.076	222.116
935.108	242.735
934.139	268.509
933.171	255.554
932.202	232.28
931.233	227.077
930.264	265.735
929.295	257.949
928.326	260.482
927.356	257.856
926.387	273.278
925.417	268.074
924.447	265.448
923.476	267.977
922.506	280.81
921.535	267.88
920.565	278.133
919.594	275.508
918.623	290.905
917.651	296
916.68	306.241
915.708	303.612
914.737	306.13
913.765	329.223
912.792	298.305
911.82	298.251
910.848	308.48
909.875	339.267
908.902	290.38
907.929	346.852
906.956	362.202
905.982	313.338
905.009	333.825
904.035	356.871
903.061	390.177
902.087	379.841
901.113	397.734
900.138	374.573
899.164	428.372
898.189	405.213
897.214	394.883
896.239	417.885
895.263	379.361
894.288	415.171
893.312	348.476
892.336	399.65
891.36	420.069
890.384	386.701
889.408	361.026
888.431	340.481
887.454	378.813
886.478	340.358
885.5	319.827
884.523	363.258
883.546	352.962
882.568	373.356
881.59	311.926
880.612	316.982
879.634	375.709
878.656	355.198
877.677	321.92
876.699	347.406
875.72	332.019
874.741	395.797
873.762	329.346
872.782	342.049
871.803	372.613
870.823	387.856
869.843	341.864
868.863	367.309
867.883	385.095
866.902	372.276
865.922	359.462
864.941	389.984
863.96	338.944
862.979	369.459
861.997	361.749
861.016	382.06
860.034	384.537
859.052	389.56
858.07	402.218
857.088	427.597
856.105	363.901
855.123	386.733
854.14	401.926
853.157	417.114
852.174	419.581
851.191	409.335
850.207	404.177
849.224	388.855
848.24	370.997
847.256	378.551
846.272	375.942
845.287	383.493
844.303	388.502
843.318	385.893
842.333	324.903
841.348	334.996
840.363	329.86
839.377	317.116
838.392	317.058
837.406	299.249
836.42	286.517
835.434	294.07
834.447	296.551
833.461	288.895
832.474	273.64
831.487	253.325
830.5	258.344
829.513	245.636
828.525	248.123
827.538	220.232
826.55	235.378
825.562	242.927
824.574	242.883
823.586	250.427
822.597	225.091
821.609	247.808
820.62	214.896
819.631	202.218
818.641	176.909
817.652	212.252
816.662	202.108
815.673	239.96
814.683	202.035
813.693	161.598
812.702	179.241
811.712	181.732
810.721	209.459
809.73	174.097
808.739	196.769
807.748	211.867
806.757	153.827
805.765	191.619
804.774	168.897
803.782	194.07
802.79	173.875
801.797	156.207
800.805	161.217
799.812	153.632
798.819	173.748
797.826	203.928
796.833	133.41
795.84	171.137
794.846	193.752
793.853	163.527
792.859	178.589
791.865	183.587
790.87	170.981
789.876	181.006
788.881	173.432
787.887	175.914
786.892	185.932
785.896	190.923
784.901	175.818
783.906	158.207
782.91	200.861
781.914	200.825
780.918	155.611
779.922	203.261
778.925	198.206
777.929	165.56
776.932	203.15
775.935	213.143
774.938	185.526
773.94	205.545
772.943	187.965
771.945	160.367
770.947	190.401
769.949	167.823
768.951	180.314
767.952	180.282
766.954	190.262
765.955	190.228
764.956	205.208
763.957	210.175
762.957	197.628
761.958	197.592
760.958	205.059
759.958	177.518
758.958	207.483
757.958	199.948
756.957	204.909
755.957	212.367
754.956	224.818
753.955	199.802
752.954	192.274
751.952	184.749
750.951	227.15
749.949	199.656
748.947	212.095
747.945	224.531
746.943	184.58
745.941	206.991
744.938	216.927
743.935	199.437
742.932	219.34
741.929	181.92
740.925	201.819
739.922	206.765
738.918	196.764
737.914	234.081
736.91	243.998
735.906	199.145
734.901	199.109
733.897	216.491
732.892	208.988
731.887	203.975
730.882	211.399
729.876	213.847
728.871	221.266
727.865	218.74
726.859	206.274
725.853	188.842
724.847	218.62
723.84	196.225
722.833	213.573
721.826	208.568
720.819	238.32
719.812	258.132
718.805	240.714
717.797	210.896
716.789	233.184
715.781	275.305
714.773	265.335
713.765	292.559
712.756	317.294
711.748	304.844
710.739	262.663
709.73	309.687
708.72	322.016
707.711	307.097
706.701	309.517
705.691	289.655
704.681	289.602
703.671	316.771
702.661	291.97
701.65	304.286
700.64	277.023
699.629	301.701
698.618	252.196
697.606	266.982
696.595	294.121
695.583	257
694.571	261.894
693.559	249.495
692.547	281.556
691.535	261.75
690.522	269.108
689.509	236.969
688.496	273.946
687.483	259.09
686.47	291.115
685.456	214.596
684.442	244.151
683.429	258.9
682.414	236.665
681.4	248.946
680.386	263.686
679.371	253.782
678.356	224.174
677.341	219.207
676.326	263.493
675.311	248.672
674.295	253.549
673.279	228.891
672.263	187.016
671.247	260.79
670.231	231.224
669.214	265.613
668.198	265.564
667.181	250.765
666.164	233.513
665.146	245.757
664.129	248.169
663.111	270.234
662.093	260.359
661.075	260.311
660.057	270.085
659.039	274.945
658.02	299.438
657.001	269.936
655.983	291.968
654.963	296.82
653.944	291.86
652.925	306.52
651.905	318.722
650.885	328.468
649.865	340.662
648.845	338.149
647.824	316.037
646.804	311.08
645.783	306.125
644.762	301.172
643.741	330.493
642.719	335.328
641.698	315.689
640.676	313.184
639.654	357.159
638.632	291.056
637.609	349.692
636.587	308.063
635.564	317.784
634.541	290.841
633.518	346.99
632.495	307.836
631.471	317.55
630.448	332.145
629.424	351.618
628.4	319.816
627.376	322.198
626.351	300.175
625.327	314.759
624.302	334.218
623.277	309.765
622.252	329.217
621.226	314.527
620.201	304.718
619.175	321.723
618.149	350.906
617.123	294.804
616.097	311.801
615.07	309.308
614.044	345.777
613.017	306.76
611.99	326.176
610.963	318.815
609.935	313.89
608.908	304.1
607.88	318.638
606.852	294.261
605.824	333.109
604.795	299.014
603.767	342.709
602.738	342.645
601.709	383.886
600.68	332.802
599.65	291.452
598.621	335.107
597.591	347.185
596.561	334.984
595.531	298.517
594.501	327.58
593.47	325.094
592.44	286.224
591.409	300.722
590.378	288.543
589.347	332.126
588.315	288.436
587.284	324.733
586.252	305.29
585.22	310.078
584.188	302.755
583.155	317.229
582.123	334.118
581.09	321.953
580.057	348.516
579.024	319.414
577.99	343.548
576.957	353.16
575.923	336.166
574.889	324.013
573.855	338.459
572.821	360.15
571.786	340.75
570.752	364.849
569.717	335.793
568.682	369.545
567.647	381.551
566.611	340.435
565.576	376.582
564.54	398.234
563.504	366.79
562.467	390.849
561.431	308.761
560.394	395.527
559.358	352.051
558.321	335.109
557.284	359.151
556.246	366.315
555.209	308.418
554.171	363.77
553.133	317.939
552.095	349.186
551.057	322.636
550.018	363.5
548.979	310.482
547.94	334.489
546.901	334.427
545.862	312.715
544.823	358.353
543.783	341.455
542.743	365.433
541.703	312.483
540.663	331.652
539.622	346.007
538.582	307.505
537.541	341.075
536.5	304.989
535.459	324.141
534.417	309.677
533.376	338.422
532.334	319.161
531.292	345.494
530.25	326.239
529.207	359.756
528.165	352.495
527.122	338.045
526.079	328.394
525.036	335.523
523.992	345.045
522.949	373.729
521.905	299.407
520.861	349.642
519.817	316.056
518.773	349.512
517.728	399.71
516.684	339.81
515.639	378.029
514.594	377.958
513.548	394.63
512.503	411.295
511.457	399.265
510.411	420.704
509.365	408.676
508.319	399.042
507.273	410.913
506.226	425.168
505.179	429.866
504.132	420.235
503.085	386.735
502.037	405.758
500.99	408.069
499.942	400.835
498.894	438.928
497.846	367.295
496.797	386.304
495.749	393.384
494.7	369.474
493.651	331.273
492.602	352.657
491.552	347.826
490.503	331.088
489.453	304.83
488.403	330.965
487.353	295.194
486.303	290.379
485.252	306.983
484.201	268.857
483.15	314.005
482.099	309.19
481.048	290.109
479.996	278.167
478.945	328.033
477.893	306.583
476.841	308.902
475.788	301.717
474.736	304.036
473.683	325.353
472.63	339.539
471.577	301.492
470.524	315.677
469.47	322.737
468.417	310.814
467.363	372.433
466.309	334.416
465.254	367.551
464.2	365.112
463.145	405.341
462.09	362.606
461.035	419.407
459.98	381.423
458.925	435.831
457.869	454.695
456.813	423.829
455.757	383.506
454.701	444.973
453.644	416.493
452.588	414.049
451.531	430.531
450.474	428.085
449.417	423.276
448.359	465.753
447.302	434.937
446.244	430.129
445.186	394.605
444.128	427.606
443.069	392.096
442.011	358.96
440.952	396.671
439.893	389.515
438.834	431.927
437.774	358.692
436.715	372.781
435.655	410.454
434.595	372.642
433.535	407.943
432.474	400.794
431.414	384.219
430.353	351.153
429.292	367.581
428.231	386.359
427.169	393.353
426.108	397.989
425.046	348.47
423.984	362.529
422.922	348.339
421.859	397.692
420.797	388.206
419.734	355.201
418.671	399.82
417.608	402.097
416.544	404.373
415.481	366.688
414.417	371.32
413.353	366.551
412.289	439.309
411.225	373.46
410.16	392.177
409.095	385.06
408.03	422.547
406.965	394.304
405.9	436.469
404.834	424.656
403.768	426.922
402.702	473.748
401.636	471.314
400.57	487.637
399.503	506.297
398.436	440.583
397.37	431.129
396.302	508.355
395.235	466.1
394.167	466.013
393.1	416.757
392.032	451.793
390.964	432.984
389.895	446.943
388.827	437.501
387.758	446.776
386.689	432.66
385.62	484.02
384.55	474.578
383.481	420.729
382.411	434.672
381.341	497.676
380.271	450.861
379.2	478.804
378.13	509.072
377.059	480.959
375.988	478.535
374.917	450.438
373.846	536.691
372.774	468.933
371.702	492.171
370.63	475.753
369.558	538.62
368.486	498.887
367.413	512.778
366.34	535.986
365.267	493.946
364.194	493.853
363.121	503.077
362.047	435.452
360.973	426.058
359.899	446.927
358.825	416.588
357.751	400.222
356.676	465.287
355.601	423.331
354.526	446.507
353.451	434.798
352.376	395.196
351.3	453.228
350.224	418.286
349.148	434.471
348.072	392.576
346.996	408.76
345.919	408.683
344.842	455.039
343.765	450.311
342.688	461.83
341.61	452.462
340.533	457.016
339.455	445.333
338.377	507.862
337.299	503.129
336.22	475.217
335.141	482.081
334.063	502.845
332.984	456.414
331.904	502.656
330.825	497.929
329.745	514.044
328.665	544.043
327.585	504.592
326.505	532.267
325.424	511.343
324.344	550.574
323.263	548.157
322.182	545.741
321.1	510.958
320.019	496.992
318.937	485.343
317.855	492.183
316.773	492.09
315.691	459.66
314.608	461.883
313.526	501.048
312.443	470.943
311.359	438.54
310.276	447.688
309.193	454.525
308.109	440.599
307.025	433.597
305.941	440.433
304.856	412.684
303.772	431.046
302.687	428.66
301.602	417.058
300.517	463.055
299.431	409.991
298.346	400.702
297.26	432.861
296.174	467.309
295.088	441.904
294.001	441.82
292.915	469.345
291.828	455.455
290.741	466.868
289.654	505.87
288.566	489.682
287.479	496.485
286.391	480.304
285.303	516.976
284.214	457.15
283.126	530.562
282.037	523.572
280.948	530.361
279.859	500.419
278.77	495.734
277.681	516.292
276.591	543.725
275.501	557.385
274.411	550.4
273.321	518.195
272.23	545.607
271.139	524.875
270.048	575.191
268.957	543.006
267.866	529.159
266.774	577.155
265.682	515.219
264.59	590.673
263.498	567.671
262.406	595.027
261.313	647.541
260.221	626.829
259.128	612.987
258.034	690.623
256.941	665.342
255.847	660.644
254.753	703.944
253.659	680.96
252.565	696.823
251.471	669.28
250.376	650.883
249.281	694.144
248.186	696.295
247.091	666.491
245.995	670.929
244.9	620.606
243.804	625.05
242.708	606.686
241.611	631.655
240.515	620.135
239.418	658.769
238.321	674.597
237.224	651.683
236.126	665.229
235.029	667.38
233.931	683.195
232.833	669.404
231.735	682.936
230.636	698.738
229.538	669.023
228.439	707.574
227.34	666.495
226.241	645.899
225.141	668.515
224.042	670.662
222.942	668.262
221.842	645.409
220.741	708.906
219.641	692.87
218.54	660.941
217.439	656.273
216.338	708.368
215.237	733.203
214.135	737.603
213.034	751.078
211.932	721.442
210.829	714.5
209.727	707.561
208.624	773.181
207.522	727.695
206.419	759.288
205.315	759.144
204.212	768.062
203.108	761.121
202.005	815.331
200.9	808.383
199.796	794.646
198.692	724.326
197.587	771.713
196.482	798.718
195.377	821.188
194.272	739.607
193.166	793.74
192.06	818.459
190.955	791.177
189.848	734.525
188.742	775.059
187.635	829.132
186.529	777.022
185.422	754.291
184.314	812.853
183.207	783.351
182.099	767.403
180.992	803.363
179.883	789.673
178.775	809.824
177.667	807.415
176.558	793.731
175.449	856.706
174.34	836.256
173.231	838.351
172.121	869.736
171.011	874.075
169.901	855.89
168.791	887.254
167.681	927.612
166.57	909.426
165.46	936.261
164.349	927.081
163.237	915.656
162.126	937.975
161.014	980.525
159.902	1027.56
158.79	919.454
157.678	973.221
156.565	1051.69
155.453	1132.37
154.34	1035.56
153.227	1033.12
152.113	1091.3
151	1176.41
149.886	1160.47
148.772	1135.56
147.658	1220.61
146.543	1233.84
145.429	1280.7
144.314	1365.67
143.199	1345.23
142.084	1432.4
140.968	1432.13
139.853	1411.69
138.737	1527.91
137.621	1599.3
136.504	1484.78
135.388	1596.45
134.271	1578.24
133.154	1694.32
132.037	1718.61
130.919	1794.35
129.802	1744.8
128.684	1809.32
127.566	1851.46
126.448	1893.59
125.329	1989.34
124.211	1986.72
123.092	1984.11
121.973	2001.6
120.853	2054.82
119.734	2072.3
118.614	2091.99
117.494	2165.26
116.374	2303.21
115.253	2316.16
114.133	2233.17
113.012	2279.59
111.891	2261.31
110.77	2316.62
109.648	2307.26
108.527	2286.76
107.405	2154.85
106.283	2125.47
105.16	2187.43
104.038	2131.34
102.915	2059.68
101.792	1947.97
100.669	1927.56
