3201.19	-4.21121
3200.6	0
3200	-4.21058
3199.41	12.6298
3198.82	4.2093
3198.22	8.41734
3197.63	0
3197.03	33.6592
3196.44	25.2406
3195.85	-4.20613
3195.25	37.8494
3194.66	12.6146
3194.06	16.8169
3193.47	8.40717
3192.87	16.8118
3192.28	25.2139
3191.68	0
3191.09	4.20104
3190.49	12.6012
3189.9	8.39955
3189.3	0
3188.71	25.191
3188.11	-12.5936
3187.52	8.39447
3186.92	8.3932
3186.32	8.39193
3185.73	29.3673
3185.13	4.1947
3184.54	4.19406
3183.94	8.38686
3183.34	20.964
3182.75	-8.38432
3182.15	-4.19153
3181.55	4.19089
3180.96	12.5708
3180.36	-8.37925
3179.76	8.37798
3179.17	16.7534
3178.57	8.37545
3177.97	12.5613
3177.38	20.9323
3176.78	12.5575
3176.18	-25.1111
3175.58	4.18456
3174.99	0
3174.39	8.36658
3173.79	4.18266
3173.19	25.0921
3172.6	-8.36278
3172	20.9038
3171.4	8.36025
3170.8	12.5385
3170.2	29.252
3169.6	25.0694
3169.01	4.17759
3168.41	16.7078
3167.81	8.35266
3167.21	50.1084
3166.61	12.5252
3166.01	25.0466
3165.41	8.3476
3164.81	16.6927
3164.22	-12.5176
3163.62	12.5157
3163.02	-33.3702
3162.42	8.34128
3161.82	16.68
3161.22	20.8469
3160.62	8.33749
3160.02	8.33623
3159.42	8.33496
3158.82	4.16685
3158.22	8.33244
3157.62	-4.16559
3157.02	12.4949
3156.42	8.32865
3155.82	16.6548
3155.22	29.1414
3154.62	8.32486
3154.02	29.1326
3153.42	-20.8058
3152.81	8.32108
3152.21	4.15991
3151.61	29.1149
3151.01	8.31729
3150.41	-12.474
3149.81	0
3149.21	8.31351
3148.61	-8.31225
3148	24.933
3147.4	33.2389
3146.8	8.30847
3146.2	0
3145.6	20.7649
3144.99	12.457
3144.39	-4.15171
3143.79	4.15108
3143.19	20.7523
3142.59	33.1986
3141.98	4.1492
3141.38	20.7428
3140.78	-8.29587
3140.17	-8.29461
3139.57	16.5867
3138.97	-29.0223
3138.37	24.8725
3137.76	4.14479
3137.16	4.14416
3136.56	-4.14353
3135.95	16.5716
3135.35	16.5691
3134.75	4.14165
3134.14	-16.5641
3133.54	-8.28078
3132.93	8.27952
3132.33	20.6957
3131.73	0
3131.12	0
3130.52	12.4117
3129.91	0
3129.31	-12.408
3128.7	-8.27072
3128.1	4.13473
3127.49	8.26821
3126.89	8.26695
3126.28	28.9299
3125.68	28.9255
3125.07	0
3124.47	0
3123.86	-4.13034
3123.26	4.12971
3122.65	0
3122.05	16.5138
3121.44	12.3835
3120.84	20.636
3120.23	20.6329
3119.62	24.7557
3119.02	12.376
3118.41	-12.3741
3117.81	4.12407
3117.2	4.12344
3116.59	8.24562
3115.99	0
3115.38	32.9725
3114.77	0
3114.17	8.24061
3113.56	4.11968
3112.95	0
3112.35	0
3111.74	20.589
3111.13	0
3110.53	20.5827
3109.92	32.9274
3109.31	16.4612
3108.7	4.11467
3108.09	8.22808
3107.49	16.4537
3106.88	4.11279
3106.27	-4.11216
3105.66	16.4462
3105.06	-4.11091
3104.45	0
3103.84	0
3103.23	12.3271
3102.62	0
3102.01	8.21557
3101.4	12.3215
3100.8	-4.10654
3100.19	12.3177
3099.58	20.5264
3098.97	-4.10466
3098.36	16.4161
3097.75	-8.20682
3097.14	24.6167
3096.53	28.7151
3095.92	8.20307
3095.31	16.4037
3094.7	12.3009
3094.09	16.3987
3093.48	20.4952
3092.87	16.3937
3092.26	-4.09779
3091.65	12.2915
3091.04	24.5793
3090.43	40.9592
3089.82	24.5718
3089.21	32.7574
3088.6	20.4702
3087.99	0
3087.38	24.5568
3086.77	4.09218
3086.16	8.1831
3085.55	12.2728
3084.93	8.18061
3084.32	8.17936
3083.71	0
3083.1	12.2653
3082.49	16.3512
3081.88	8.17438
3081.27	4.08657
3080.65	20.4297
3080.04	8.17064
3079.43	20.4235
3078.82	4.08407
3078.21	4.08345
3077.59	8.16566
3076.98	40.8221
3076.37	24.4895
3075.76	28.5667
3075.14	8.16068
3074.53	16.3189
3073.92	-8.15819
3073.3	28.5493
3072.69	-8.1557
3072.08	28.5406
3071.46	16.3064
3070.85	24.4559
3070.24	20.3768
3069.62	12.2242
3069.01	-20.3706
3068.4	0
3067.78	16.2915
3067.17	4.07225
3066.56	4.07163
3065.94	28.4971
3065.33	-4.07039
3064.71	4.06977
3064.1	12.2074
3063.48	4.06852
3062.87	16.2716
3062.25	-4.06728
3061.64	16.2666
3061.02	8.13208
3060.41	0
3059.79	0
3059.18	16.2567
3058.56	12.1907
3057.95	4.06294
3057.33	28.4362
3056.72	0
3056.1	12.1832
3055.49	4.06045
3054.87	4.05983
3054.26	12.1776
3053.64	8.11719
3053.02	12.1739
3052.41	0
3051.79	-4.05673
3051.17	8.11223
3050.56	24.333
3049.94	20.2744
3049.32	4.05425
3048.71	8.10727
3048.09	24.3181
3047.47	32.4192
3046.86	12.1553
3046.24	16.2046
3045.62	8.10108
3045.01	20.2496
3044.39	8.0986
3043.77	4.04868
3043.15	-16.1922
3042.54	-8.09488
3041.92	8.09365
3041.3	4.0462
3040.68	8.09117
3040.06	12.1349
3039.45	0
3038.83	12.1312
3038.21	28.3018
3037.59	28.2975
3036.97	20.2094
3036.35	4.04126
3035.73	8.08128
3035.12	-4.04002
3034.5	12.1182
3033.88	0
3033.26	-16.1527
3032.64	-8.07509
3032.02	4.03693
3031.4	12.1089
3030.78	8.07139
3030.16	16.1403
3029.54	0
3028.92	0
3028.3	0
3027.68	4.03261
3027.06	4.03199
3026.44	16.1255
3025.82	4.03075
3025.2	12.0904
3024.58	20.1476
3023.96	8.05781
3023.34	0
3022.72	36.249
3022.1	16.1082
3021.48	20.1322
3020.86	4.02582
3020.24	20.126
3019.62	16.0983
3018.99	8.04794
3018.37	8.0467
3017.75	-4.02274
3017.13	16.0885
3016.51	16.086
3015.89	8.04177
3015.26	12.0608
3014.64	12.059
3014.02	4.01904
3013.4	12.0553
3012.78	4.01781
3012.15	0
3011.53	36.1492
3010.91	4.01596
3010.29	-4.01534
3009.66	8.02946
3009.04	-20.0706
3008.42	24.081
3007.79	24.0773
3007.17	8.02453
3006.55	0
3005.92	12.0331
3005.3	8.02084
3004.68	16.0392
3004.05	20.046
3003.43	12.0257
3002.81	0
3002.18	-20.0367
3001.56	32.0539
3000.94	12.0183
3000.31	4.0055
2999.69	0
2999.06	32.0342
2998.44	-4.00366
2997.81	24.0183
2997.19	8.00486
2996.56	16.0073
2995.94	0
2995.31	16.0023
2994.69	23.9998
2994.06	19.9968
2993.44	11.9962
2992.81	15.9925
2992.19	7.99504
2991.56	-7.99381
2990.94	15.9852
2990.31	23.9741
2989.69	19.9753
2989.06	3.99445
2988.43	3.99384
2987.81	15.9729
2987.18	0
2986.56	27.944
2985.93	23.9483
2985.3	23.9446
2984.68	11.9705
2984.05	7.97909
2983.42	-3.98893
2982.8	19.9416
2982.17	0
2981.54	0
2980.92	19.9324
2980.29	3.98587
2979.66	7.97051
2979.03	7.96929
2978.41	15.9361
2977.78	3.98342
2977.15	15.9312
2976.52	31.8576
2975.89	27.8711
2975.27	15.9239
2974.64	15.9214
2974.01	7.95949
2973.38	35.8122
2972.75	31.8282
2972.13	11.9337
2971.5	27.8411
2970.87	11.9301
2970.24	-3.97608
2969.61	11.9264
2968.98	7.9497
2968.35	3.97424
2967.72	7.94726
2967.09	15.8921
2966.46	31.7793
2965.84	19.859
2965.21	3.97119
2964.58	23.8234
2963.95	19.8498
2963.32	11.9081
2962.69	15.875
2962.06	0
2961.43	23.8051
2960.8	47.6029
2960.17	7.9326
2959.54	11.8971
2958.91	3.96508
2958.27	31.7157
2957.64	19.8193
2957.01	23.7795
2956.38	31.7011
2955.75	7.92405
2955.12	39.6142
2954.49	27.7257
2953.86	3.9602
2953.23	15.8383
2952.59	31.6718
2951.96	7.91674
2951.33	23.7465
2950.7	35.6143
2950.07	7.91308
2949.44	27.6915
2948.8	23.7319
2948.17	19.7736
2947.54	23.7246
2946.91	11.8605
2946.27	35.576
2945.64	23.7136
2945.01	19.7583
2944.38	11.8532
2943.74	0
2943.11	35.5485
2942.48	11.8477
2941.84	15.7945
2941.21	19.7401
2940.58	15.7896
2939.94	39.468
2939.31	15.7847
2938.68	47.3469
2938.04	39.4497
2937.41	23.6662
2936.78	15.775
2936.14	47.3177
2935.51	3.94254
2934.87	43.3612
2934.24	19.7066
2933.61	15.7629
2932.97	43.3412
2932.34	15.758
2931.7	15.7556
2931.07	51.1977
2930.43	47.2521
2929.8	39.3707
2929.16	15.7458
2928.53	27.551
2927.89	43.2877
2927.26	7.86928
2926.62	19.6702
2925.98	7.86685
2925.35	39.3282
2924.71	11.7966
2924.08	31.4528
2923.44	19.655
2922.81	43.2343
2922.17	11.7893
2921.53	27.5042
2920.9	19.6428
2920.26	11.7839
2919.62	27.4915
2918.99	15.707
2918.35	19.6307
2917.71	0
2917.08	27.4745
2916.44	47.0919
2915.8	23.5423
2915.16	27.4618
2914.53	15.69
2913.89	19.6095
2913.25	50.9768
2912.61	62.731
2911.98	43.1209
2911.34	15.6779
2910.7	47.0265
2910.06	23.5096
2909.43	15.6706
2908.79	31.3364
2908.15	35.2481
2907.51	11.7475
2906.87	35.2372
2906.23	46.9756
2905.59	54.7964
2904.96	58.7014
2904.32	27.3897
2903.68	35.2099
2903.04	39.1161
2902.4	31.288
2901.76	54.7456
2901.12	35.1882
2900.48	54.7287
2899.84	3.90859
2899.2	31.2639
2898.56	54.7033
2897.92	19.5339
2897.28	35.1555
2896.64	35.1501
2896	39.0496
2895.36	50.7566
2894.72	58.5563
2894.08	39.0315
2893.44	27.3178
2892.8	15.6078
2892.16	35.112
2891.52	31.2059
2890.88	35.1012
2890.24	27.2967
2889.59	23.3935
2888.95	7.79664
2888.31	42.8749
2887.67	27.2798
2887.03	35.0686
2886.39	31.1673
2885.74	42.8483
2885.1	50.6311
2884.46	35.0469
2883.82	15.574
2883.18	42.8218
2882.53	23.3537
2881.89	11.6751
2881.25	35.0197
2880.61	27.2334
2879.96	27.2291
2879.32	23.3357
2878.68	15.5547
2878.04	19.4404
2877.39	7.77494
2876.75	11.6606
2876.11	19.4313
2875.46	23.314
2874.82	42.7357
2874.18	11.6534
2873.53	38.8386
2872.89	0
2872.24	15.5306
2871.6	31.0564
2870.96	23.2887
2870.31	11.6425
2869.67	23.2815
2869.02	7.75929
2868.38	23.2743
2867.73	-3.87844
2867.09	42.6562
2866.44	15.509
2865.8	50.3963
2865.15	31.0083
2864.51	15.5017
2863.86	58.1225
2863.22	50.365
2862.57	54.2308
2861.93	46.4764
2861.28	15.4897
2860.64	19.3591
2859.99	38.7123
2859.35	7.74126
2858.7	7.74006
2858.05	30.9554
2857.41	34.8194
2856.76	7.73645
2856.11	23.2058
2855.47	23.2022
2854.82	15.4657
2854.17	30.9266
2853.53	23.1914
2852.88	-3.86463
2852.23	19.3201
2851.59	3.86343
2850.94	46.3539
2850.29	7.72445
2849.64	30.893
2849	15.4441
2848.35	34.7439
2847.7	7.71966
2847.05	11.5777
2846.41	7.71726
2845.76	3.85803
2845.11	7.71486
2844.46	23.141
2843.81	19.2812
2843.17	0
2842.52	3.85504
2841.87	19.2722
2841.22	7.70768
2840.57	23.1194
2839.92	30.8211
2839.27	23.1122
2838.62	30.8115
2837.97	26.9559
2837.33	7.70049
2836.68	15.3986
2836.03	19.2452
2835.38	15.3938
2834.73	7.69571
2834.08	15.389
2833.43	15.3866
2832.78	19.2303
2832.13	23.0728
2831.48	15.3795
2830.83	3.84426
2830.18	30.7493
2829.53	38.4307
2828.87	7.68494
2828.22	7.68375
2827.57	19.2064
2826.92	26.8848
2826.27	19.2004
2825.62	19.1974
2824.97	26.8722
2824.32	26.868
2823.67	7.67539
2823.01	19.1855
2822.36	7.673
2821.71	7.6718
2821.06	19.1765
2820.41	11.5041
2819.76	38.3411
2819.1	26.8346
2818.45	-3.83292
2817.8	0
2817.15	22.9903
2816.49	7.66226
2815.84	15.3221
2815.19	3.82994
2814.54	30.6347
2813.88	3.82874
2813.23	7.65629
2812.58	30.6204
2811.92	3.82695
2811.27	30.6109
2810.62	3.82576
2809.96	19.1258
2809.31	11.4737
2808.66	-11.4719
2808	15.2935
2807.35	19.1139
2806.69	15.2888
2806.04	15.2864
2805.38	22.926
2804.73	19.102
2804.08	26.7386
2803.42	15.2768
2802.77	3.81862
2802.11	-3.81802
2801.46	11.4523
2800.8	22.901
2800.15	15.2649
2799.49	0
2798.84	11.4451
2798.18	22.8867
2797.53	19.0693
2796.87	-7.62653
2796.21	-3.81267
2795.56	7.62415
2794.9	3.81148
2794.25	3.81088
2793.59	15.2412
2792.93	0
2792.28	3.8091
2791.62	7.61702
2790.96	34.2712
2790.31	3.80732
2789.65	11.4202
2788.99	11.4184
2788.34	15.2222
2787.68	22.8297
2787.02	30.4348
2786.37	22.8225
2785.71	34.2285
2785.05	7.60514
2784.39	7.60395
2783.74	7.60277
2783.08	11.4024
2782.42	-7.60039
2781.76	3.7996
2781.1	3.79901
2780.45	22.7905
2779.79	11.3935
2779.13	7.59446
2778.47	-11.3899
2777.81	18.9802
2777.15	7.59091
2776.5	3.79486
2775.84	26.5599
2775.18	15.1747
2774.52	3.79308
2773.86	22.7549
2773.2	18.9595
2772.54	18.9565
2771.88	7.58143
2771.22	7.58024
2770.56	-3.78953
2769.9	-7.57787
2769.24	3.78834
2768.58	11.3633
2767.92	7.57432
2767.26	18.9328
2766.6	0
2765.94	22.7123
2765.28	3.78479
2764.62	0
2763.96	0
2763.3	15.1321
2762.64	3.78243
2761.98	7.56367
2761.31	22.6875
2760.65	18.9033
2759.99	18.9003
2759.33	7.55894
2758.67	30.231
2758.01	7.55658
2757.35	0
2756.68	11.3313
2756.02	15.1061
2755.36	37.7593
2754.7	15.1013
2754.04	15.099
2753.37	11.3225
2752.71	-3.77356
2752.05	15.0919
2751.39	7.54477
2750.72	0
2750.06	3.7712
2749.4	3.77061
2748.73	-3.77002
2748.07	11.3083
2747.41	15.0754
2746.74	0
2746.08	-7.53533
2745.42	26.3695
2744.75	7.53297
2744.09	18.8295
2743.42	0
2742.76	0
2742.1	15.0565
2741.43	30.1083
2740.77	22.5777
2740.1	22.5741
2739.44	15.0471
2738.77	15.0447
2738.11	7.52118
2737.44	33.84
2736.78	-3.75941
2736.11	-7.51764
2735.45	22.5494
2734.78	15.0306
2734.12	11.2712
2733.45	3.75647
2732.79	0
2732.12	26.287
2731.46	15.0188
2730.79	22.5247
2730.12	-7.50705
2729.46	33.7764
2728.79	11.257
2728.12	22.5106
2727.46	18.7559
2726.79	7.50117
2726.12	33.75
2725.46	14.9976
2724.79	26.2417
2724.12	18.7412
2723.46	3.74764
2722.79	-3.74706
2722.12	7.49294
2721.46	18.7294
2720.79	7.49059
2720.12	0
2719.45	7.48824
2718.78	0
2718.12	26.2006
2717.45	22.4541
2716.78	26.1924
2716.11	11.2235
2715.44	18.703
2714.78	22.44
2714.11	26.1759
2713.44	3.73883
2712.77	11.2147
2712.1	22.426
2711.43	22.4224
2710.76	18.6824
2710.09	-3.7359
2709.42	-7.47063
2708.75	7.46946
2708.09	-7.46828
2707.42	3.73356
2706.75	3.73297
2706.08	37.3238
2705.41	26.1226
2704.74	7.46242
2704.07	-3.73062
2703.4	-3.73004
2702.73	7.45891
2702.06	7.45773
2701.38	26.098
2700.71	3.7277
2700.04	18.6355
2699.37	-3.72652
2698.7	11.1778
2698.03	-7.45071
2697.36	29.7981
2696.69	37.2418
2696.02	0
2695.34	11.169
2694.67	22.3346
2694	26.0529
2693.33	3.72126
2692.66	-14.8827
2691.99	11.1603
2691.31	22.317
2690.64	18.5946
2689.97	26.0283
2689.3	22.3065
2688.62	7.43433
2687.95	3.71658
2687.28	22.296
2686.61	14.8616
2685.93	14.8593
2685.26	22.2854
2684.59	11.141
2683.91	18.5654
2683.24	0
2682.57	11.1357
2681.89	29.6906
2681.22	0
2680.55	-3.71015
2679.87	7.41914
2679.2	18.5449
2678.52	3.7084
2677.85	7.41563
2677.17	-7.41447
2676.5	11.12
2675.83	-7.41213
2675.15	22.2329
2674.48	22.2294
2673.8	3.70432
2673.13	-7.40747
2672.45	7.4063
2671.78	25.918
2671.1	14.8079
2670.42	-3.7014
2669.75	7.40164
2669.07	22.2014
2668.4	-7.39931
2667.72	-3.69907
2667.05	11.0955
2666.37	18.4895
2665.69	25.8813
2665.02	22.1804
2664.34	18.4808
2663.66	-7.39115
2662.99	11.085
2662.31	7.38882
2661.63	25.8568
2660.96	3.69325
2660.28	29.5413
2659.6	7.38416
2658.93	14.766
2658.25	3.69092
2657.57	14.7613
2656.89	18.4488
2656.22	3.68917
2655.54	11.0658
2654.86	36.8801
2654.18	3.68743
2653.5	14.7474
2652.83	25.8039
2652.15	3.68568
2651.47	3.6851
2650.79	25.7916
2650.11	14.7358
2649.43	11.0501
2648.76	22.0967
2648.08	7.36439
2647.4	-14.7265
2646.72	-7.36207
2646.04	14.7218
2645.36	18.3994
2644.68	0
2644	7.35742
2643.32	3.67813
2642.64	22.0653
2641.96	0
2641.28	11.0292
2640.6	33.0823
2639.92	11.0257
2639.24	22.0479
2638.56	0
2637.88	14.694
2637.2	3.67291
2636.52	18.3616
2635.84	0
2635.16	33.0405
2634.47	3.67059
2633.79	36.7001
2633.11	-3.66943
2632.43	14.6754
2631.75	18.3414
2631.07	18.3385
2630.39	14.6685
2629.7	14.6661
2629.02	0
2628.34	-14.6615
2627.66	3.6648
2626.98	21.9853
2626.29	21.9818
2625.61	21.9784
2624.93	21.9749
2624.25	21.9714
2623.56	21.9679
2622.88	0
2622.2	25.6212
2621.51	7.31917
2620.83	3.65901
2620.15	18.2921
2619.46	10.9736
2618.78	7.31454
2618.1	14.6268
2617.41	18.2806
2616.73	3.65554
2616.04	3.65496
2615.36	14.6175
2614.68	7.30761
2613.99	18.2661
2613.31	3.65265
2612.62	0
2611.94	3.65149
2611.25	7.30183
2610.57	25.5524
2609.88	29.1981
2609.2	10.9475
2608.51	14.5944
2607.83	21.8882
2607.14	-3.64745
2606.46	7.29374
2605.77	7.29259
2605.09	7.29143
2604.4	25.516
2603.71	10.9337
2603.03	18.2199
2602.34	14.5736
2601.66	3.64283
2600.97	-3.64225
2600.28	10.925
2599.6	25.4877
2598.91	3.64052
2598.22	21.8397
2597.54	0
2596.85	14.5552
2596.16	10.9147
2595.47	21.8259
2594.79	7.27413
2594.1	10.9095
2593.41	29.0873
2592.72	29.0827
2592.04	7.26952
2591.35	-3.63419
2590.66	-3.63361
2589.97	21.7982
2589.28	0
2588.6	18.1594
2587.91	14.5252
2587.22	7.26146
2586.53	21.7809
2585.84	14.5183
2585.15	3.629
2584.46	-18.1421
2583.77	29.0228
2583.09	-7.25456
2582.4	10.8801
2581.71	0
2581.02	10.8767
2580.33	10.8749
2579.64	10.8732
2578.95	21.743
2578.26	3.62325
2577.57	3.62268
2576.88	7.24421
2576.19	21.7292
2575.5	18.1048
2574.81	-3.62038
2574.12	-10.8594
2573.42	10.8577
2572.73	14.4746
2572.04	-10.8542
2571.35	-7.23502
2570.66	14.4677
2569.97	39.78
2569.28	28.9263
2568.59	18.0761
2567.89	21.6878
2567.2	-14.4563
2566.51	3.61349
2565.82	14.4517
2565.13	3.61234
2564.43	25.2824
2563.74	7.22239
2563.05	7.22124
2562.36	18.0502
2561.66	14.4379
2560.97	7.2178
2560.28	3.60833
2559.59	28.862
2558.89	7.21436
2558.2	3.60661
2557.51	7.21207
2556.81	14.4218
2556.12	10.8147
2555.43	14.4173
2554.73	0
2554.04	7.20634
2553.34	21.6156
2552.65	-3.60203
2551.96	0
2551.26	14.4035
2550.57	-14.4012
2549.87	17.9987
2549.18	14.3967
2548.48	10.7958
2547.79	0
2547.09	3.59745
2546.4	7.19375
2545.7	3.5963
2545.01	10.7872
2544.31	14.3806
2543.62	14.3783
2542.92	10.782
2542.23	3.59344
2541.53	3.59287
2540.83	10.7769
2540.14	7.18346
2539.44	10.7735
2538.75	7.18117
2538.05	14.3601
2537.35	10.7683
2536.66	25.1221
2535.96	21.5298
2535.26	10.7632
2534.57	3.58716
2533.87	21.5195
2533.17	25.1021
2532.48	25.0981
2531.78	21.5092
2531.08	3.5843
2530.38	14.3349
2529.68	0
2528.99	3.58259
2528.29	25.0741
2527.59	7.1629
2526.89	21.4853
2526.19	0
2525.5	17.8987
2524.8	21.475
2524.1	7.1572
2523.4	28.6242
2522.7	3.57746
2522	7.15378
2521.3	17.8816
2520.6	-3.57575
2519.91	17.8759
2519.21	14.2984
2518.51	25.0183
2517.81	35.7347
2517.11	7.1458
2516.41	10.717
2515.71	14.287
2515.01	14.2848
2514.31	14.2825
2513.61	17.8503
2512.91	17.8474
2512.21	14.2757
2511.51	-10.705
2510.8	-3.56778
2510.1	14.2688
2509.4	14.2665
2508.7	3.56607
2508	21.393
2507.3	3.56493
2506.6	-7.12872
2505.9	7.12759
2505.19	24.9426
2504.49	32.0639
2503.79	7.12418
2503.09	10.6846
2502.39	10.6829
2501.69	24.9227
2500.98	24.9187
2500.28	17.7962
2499.58	0
2498.88	10.6743
2498.17	10.6726
2497.47	7.11395
2496.77	0
2496.06	17.7792
2495.36	14.2211
2494.66	-7.10941
2493.95	14.2165
2493.25	-7.10713
2492.55	7.106
2491.84	14.2097
2491.14	3.55186
2490.44	28.4104
2489.73	3.55073
2489.03	21.301
2488.32	0
2487.62	14.1961
2486.91	7.09692
2486.21	24.8353
2485.5	31.9259
2484.8	17.7338
2484.09	10.6386
2483.39	28.365
2482.68	-3.54506
2481.98	24.8115
2481.27	14.1757
2480.57	14.1734
2479.86	24.7996
2479.16	17.7111
2478.45	24.7916
2477.74	-3.54109
2477.04	24.7837
2476.33	28.3197
2475.63	10.6182
2474.92	3.53883
2474.21	-3.53826
2473.51	3.5377
2472.8	10.6114
2472.09	17.6828
2471.39	28.288
2470.68	21.2126
2469.97	21.2092
2469.26	14.1372
2468.56	14.135
2467.85	10.5995
2467.14	3.53261
2466.43	7.06408
2465.73	10.5944
2465.02	10.5927
2464.31	17.6517
2463.6	24.7085
2462.89	38.8214
2462.18	24.7006
2461.48	-7.05617
2460.77	3.52752
2460.06	-21.1617
2459.35	10.5792
2458.64	24.6808
2457.93	-3.52526
2457.22	24.6729
2456.51	3.52413
2455.8	14.0943
2455.09	7.04601
2454.38	17.6122
2453.67	3.52188
2452.96	10.5639
2452.25	21.1245
2451.54	21.1211
2450.83	7.03924
2450.12	0
2449.41	14.074
2448.7	10.5538
2447.99	-7.03473
2447.28	3.5168
2446.57	14.0649
2445.86	3.51567
2445.15	14.0604
2444.43	17.5727
2443.72	21.0839
2443.01	17.5671
2442.3	24.59
2441.59	14.0492
2440.88	17.5586
2440.16	17.5558
2439.45	10.5318
2438.74	17.5502
2438.03	21.0569
2437.32	24.5624
2436.6	14.0334
2435.89	-7.01557
2435.18	17.5361
2434.46	21.04
2433.75	-7.0122
2433.04	10.5166
2432.32	24.5348
2431.61	10.5132
2430.9	0
2430.18	17.5164
2429.47	10.5082
2428.76	3.50216
2428.04	17.508
2427.33	28.0083
2426.61	35.0048
2425.9	10.4997
2425.19	13.9974
2424.47	27.9903
2423.76	27.9858
2423.04	27.9813
2422.33	17.4855
2421.61	10.4896
2420.9	3.49598
2420.18	13.9817
2419.47	6.98971
2418.75	6.98859
2418.04	13.9749
2417.32	6.98635
2416.6	3.49261
2415.89	17.4603
2415.17	24.4404
2414.46	10.4728
2413.74	27.9229
2413.02	-6.97961
2412.31	3.48925
2411.59	6.97737
2410.87	3.48812
2410.16	27.9005
2409.44	6.97401
2408.72	13.9458
2408.01	6.97176
2407.29	20.9119
2406.57	6.96952
2405.85	17.421
2405.14	20.9018
2404.42	34.8308
2403.7	3.48252
2402.98	20.8918
2402.26	0
2401.55	-3.48084
2400.83	13.9211
2400.11	17.3986
2399.39	6.95832
2398.67	13.9144
2397.95	6.95608
2397.23	10.4324
2396.51	0
2395.8	24.3345
2395.08	17.379
2394.36	6.95048
2393.64	-3.47468
2392.92	13.8965
2392.2	31.2621
2391.48	0
2390.76	17.3622
2390.04	31.247
2389.32	-3.47133
2388.6	-13.8831
2387.88	24.2915
2387.16	0
2386.44	10.4073
2385.72	27.7483
2384.99	17.3399
2384.27	0
2383.55	31.2017
2382.83	24.2641
2382.11	-3.46574
2381.39	0
2380.67	0
2379.95	-17.3203
2379.22	3.46351
2378.5	13.8518
2377.78	20.7743
2377.06	20.771
2376.33	3.46127
2375.61	6.92143
2374.89	31.1414
2374.17	6.9192
2373.44	17.2952
2372.72	6.91697
2372	17.2896
2371.28	6.91474
2370.55	24.1977
2369.83	27.65
2369.11	34.557
2368.38	17.2757
2367.66	24.1821
2366.93	20.7242
2366.21	17.2673
2365.49	20.7175
2364.76	6.90471
2364.04	-3.4518
2363.31	17.2562
2362.59	6.90137
2361.86	13.8005
2361.14	-3.44957
2360.42	24.1431
2359.69	20.6907
2358.97	10.3437
2358.24	13.7894
2357.51	17.2339
2356.79	-3.44623
2356.06	13.7827
2355.34	-6.89023
2354.61	31.0011
2353.89	-6.88801
2353.16	3.44345
2352.43	13.7716
2351.71	20.654
2350.98	3.44178
2350.26	3.44122
2349.53	0
2348.8	-6.88023
2348.07	34.3956
2347.35	6.878
2346.62	13.7538
2345.89	3.43789
2345.17	0
2344.44	-3.43678
2343.71	3.43622
2342.98	6.87134
2342.26	13.7405
2341.53	10.3037
2340.8	13.736
2340.07	3.43345
2339.34	27.4631
2338.62	17.1617
2337.89	13.7271
2337.16	10.2937
2336.43	48.0294
2335.7	30.8711
2334.97	-6.85913
2334.24	3.42901
2333.51	0
2332.78	34.279
2332.05	-10.282
2331.33	6.85358
2330.6	27.4099
2329.87	23.9798
2329.14	17.1256
2328.41	3.42457
2327.68	13.6961
2326.95	20.5408
2326.22	34.2291
2325.48	20.5341
2324.75	27.3744
2324.02	13.685
2323.29	3.4207
2322.56	30.7813
2321.83	3.41959
2321.1	34.1904
2320.37	-3.41848
2319.64	6.83586
2318.9	10.2521
2318.17	10.2505
2317.44	3.41627
2316.71	10.2471
2315.98	17.0758
2315.25	-3.41461
2314.51	10.2422
2313.78	3.4135
2313.05	23.8906
2312.32	6.82479
2311.58	20.4711
2310.85	13.6452
2310.12	20.4644
2309.38	20.4611
2308.65	13.6385
2307.92	0
2307.18	17.0426
2306.45	27.2638
2305.72	10.2223
2304.98	20.4412
2304.25	23.8442
2303.51	6.81153
2302.78	30.6469
2302.05	-10.214
2301.31	20.4247
2300.58	6.80712
2299.84	20.418
2299.11	6.80491
2298.37	6.8038
2297.64	-3.40135
2296.9	13.6032
2296.17	6.80049
2295.43	6.79939
2294.7	6.79829
2293.96	20.3916
2293.23	23.7863
2292.49	13.59
2291.75	6.79388
2291.02	23.7747
2290.28	3.39584
2289.55	-3.39529
2288.81	0
2288.07	20.3651
2287.34	6.78726
2286.6	20.3585
2285.86	10.1776
2285.12	-3.39198
2284.39	0
2283.65	13.5635
2282.91	6.78066
2282.18	0
2281.44	20.3354
2280.7	16.9434
2279.96	10.1644
2279.22	16.9379
2278.49	6.77405
2277.75	13.5459
2277.01	-3.38592
2276.27	16.9269
2275.53	13.5393
2274.79	13.5371
2274.05	6.76745
2273.32	16.9159
2272.58	23.6784
2271.84	10.1462
2271.1	10.1446
2270.36	20.2859
2269.62	13.5217
2268.88	23.6591
2268.14	10.138
2267.4	20.2727
2266.66	6.75646
2265.92	13.5107
2265.18	13.5085
2264.44	-3.37658
2263.7	20.2562
2262.96	10.1264
2262.22	13.4997
2261.48	3.37438
2260.74	13.4953
2259.99	3.37329
2259.25	30.3546
2258.51	6.74438
2257.77	30.3448
2257.03	33.7109
2256.29	-6.74109
2255.55	16.85
2254.8	30.325
2254.06	6.7378
2253.32	26.9468
2252.58	13.4712
2251.83	37.0398
2251.09	13.4668
2250.35	6.73231
2249.61	30.2905
2248.86	16.8253
2248.12	20.1871
2247.38	20.1838
2246.63	20.1805
2245.89	13.4515
2245.15	6.72464
2244.4	6.72355
2243.66	26.8898
2242.92	23.5248
2242.17	20.1608
2241.43	33.5958
2240.68	16.7952
2239.94	6.71698
2239.19	20.1477
2238.45	6.71479
2237.7	23.4979
2236.96	6.7126
2236.21	26.846
2235.47	13.4208
2234.72	6.70932
2233.98	10.0623
2233.23	10.0607
2232.49	23.4711
2231.74	23.4673
2231	13.4077
2230.25	10.0541
2229.5	3.35083
2228.76	6.70057
2228.01	3.34974
2227.27	26.7936
2226.52	33.4865
2225.77	20.0886
2225.03	3.34756
2224.28	10.041
2223.53	23.4252
2222.78	13.3837
2222.04	13.3815
2221.29	-3.34483
2220.54	26.7542
2219.79	10.0312
2219.05	16.7159
2218.3	3.34264
2217.55	10.0263
2216.8	6.6831
2216.05	20.046
2215.31	26.7237
2214.56	23.3794
2213.81	3.33937
2213.06	10.0165
2212.31	36.7211
2211.56	6.67547
2210.81	-3.33719
2210.06	30.0298
2209.31	26.6888
2208.56	20.0133
2207.81	16.6751
2207.07	23.3413
2206.32	0
2205.57	3.33338
2204.82	-3.33283
2204.06	16.6614
2203.31	16.6587
2202.56	29.9808
2201.81	13.3226
2201.06	9.99033
2200.31	26.6365
2199.56	29.9612
2198.81	0
2198.06	23.2955
2197.31	19.9643
2196.56	13.3074
2195.8	19.9578
2195.05	23.2803
2194.3	0
2193.55	19.948
2192.8	16.6206
2192.04	6.64716
2191.29	0
2190.54	-6.64499
2189.79	6.6439
2189.03	13.2856
2188.28	16.6043
2187.53	9.96096
2186.78	6.63956
2186.02	16.5962
2185.27	13.2748
2184.52	13.2726
2183.76	13.2704
2183.01	23.2194
2182.25	16.5826
2181.5	13.2639
2180.75	9.9463
2179.99	36.4638
2179.24	13.2574
2178.48	33.1381
2177.73	19.8796
2176.97	19.8763
2176.22	-6.62436
2175.46	16.5582
2174.71	0
2173.95	29.795
2173.2	26.4801
2172.44	6.61893
2171.69	23.1625
2170.93	29.7754
2170.18	19.847
2169.42	23.1511
2168.67	23.1473
2167.91	36.3684
2167.15	9.91702
2166.4	16.5257
2165.64	19.8275
2164.88	23.1283
2164.13	-3.30351
2163.37	33.0296
2162.61	39.6291
2161.86	26.4151
2161.1	6.60268
2160.34	0
2159.58	23.1018
2158.83	19.7983
2158.07	29.6926
2157.31	16.4932
2156.55	3.29809
2155.79	13.1902
2155.04	23.0791
2154.28	13.1859
2153.52	23.0715
2152.76	26.3631
2152	6.5897
2151.24	-6.58862
2150.48	26.3501
2149.72	9.87968
2148.96	23.0488
2148.21	9.87644
2147.45	29.6245
2146.69	13.1643
2145.93	3.29053
2145.17	13.1599
2144.41	29.605
2143.65	3.28891
2142.89	16.4418
2142.13	29.5904
2141.37	13.1491
2140.6	29.5807
2139.84	9.85862
2139.08	6.57133
2138.32	22.9959
2137.56	29.5613
2136.8	22.9883
2136.04	29.5516
2135.28	16.4148
2134.52	36.1067
2133.75	26.2551
2132.99	22.9695
2132.23	16.4041
2131.47	32.8027
2130.71	13.1189
2129.94	26.2336
2129.18	16.3933
2128.42	6.55623
2127.65	36.0534
2126.89	9.83112
2126.13	6.553
2125.37	13.1038
2124.6	22.928
2123.84	13.0995
2123.08	13.0974
2122.31	26.1905
2121.55	19.6396
2120.78	9.81819
2120.02	6.54438
2119.26	13.0866
2118.49	9.81335
2117.73	35.9764
2116.96	0
2116.2	-9.80851
2115.43	-3.26896
2114.67	19.6106
2113.9	19.6073
2113.14	19.6041
2112.37	22.8677
2111.61	26.1302
2110.84	13.0629
2110.08	13.0608
2109.31	9.79399
2108.55	22.8489
2107.78	9.79076
2107.01	13.0522
2106.25	19.5751
2105.48	-3.26198
2104.71	22.8301
2103.95	16.3045
2103.18	19.5622
2102.41	13.0393
2101.65	22.815
2100.88	19.5525
2100.11	22.8075
2099.34	9.77304
2098.58	0
2097.81	9.76982
2097.04	22.7925
2096.27	9.7666
2095.51	13.02
2094.74	3.25446
2093.97	3.25392
2093.2	0
2092.43	6.5057
2091.66	22.7662
2090.89	32.5178
2090.13	22.7587
2089.36	13.0028
2088.59	22.7512
2087.82	6.49927
2087.05	35.7401
2086.28	16.2428
2085.51	12.9921
2084.74	32.4749
2083.97	-3.24696
2083.2	3.24642
2082.43	19.4753
2081.66	29.2081
2080.89	29.2033
2080.12	6.48856
2079.35	25.9499
2078.58	12.9728
2077.81	12.9707
2077.03	9.72641
2076.26	29.1744
2075.49	9.7232
2074.72	16.2027
2073.95	-3.24
2073.18	22.6762
2072.4	-3.23893
2071.63	42.0991
2070.86	16.1893
2070.09	22.6613
2069.32	6.47358
2068.54	9.70876
2067.77	12.9429
2067	-6.47037
2066.23	29.1119
2065.45	9.70235
2064.68	6.46717
2063.91	32.3305
2063.13	32.3251
2062.36	22.6239
2061.59	42.0088
2060.81	22.6164
2060.04	29.0734
2059.26	29.0686
2058.49	19.3759
2057.72	25.8302
2056.94	12.913
2056.17	19.3663
2055.39	22.5902
2054.62	22.5865
2053.84	29.035
2053.07	22.579
2052.29	25.8003
2051.52	19.3471
2050.74	22.5678
2049.97	22.5641
2049.19	29.0062
2048.41	38.6685
2047.64	32.2184
2046.86	16.1066
2046.09	32.2078
2045.31	19.3215
2044.53	12.8788
2043.76	16.0959
2042.98	28.9678
2042.2	32.1811
2041.43	32.1758
2040.65	45.0387
2039.87	9.64955
2039.09	25.7279
2038.32	16.0773
2037.54	32.1492
2036.76	28.9295
2035.98	6.42771
2035.21	28.9199
2034.43	3.21279
2033.65	19.2736
2032.87	16.0586
2032.09	28.9008
2031.31	22.4746
2030.53	22.4709
2029.76	19.2576
2028.98	12.8363
2028.2	12.8341
2027.42	32.08
2026.64	22.4523
2025.86	16.0347
2025.08	16.0321
2024.3	22.4412
2023.52	12.8214
2022.74	3.20482
2021.96	22.43
2021.18	0
2020.4	28.829
2019.62	28.8242
2018.84	19.213
2018.06	25.613
2017.28	32.011
2016.49	38.4068
2015.71	6.40007
2014.93	6.39901
2014.15	22.3928
2013.37	19.1907
2012.59	35.1771
2011.8	12.7895
2011.02	35.1654
2010.24	9.58897
2009.46	19.1748
2008.68	19.1716
2007.89	35.1421
2007.11	28.7478
2006.33	9.58102
2005.55	41.5109
2004.76	22.3483
2003.98	35.1129
2003.2	12.7662
2002.41	25.5282
2001.63	19.143
2000.84	31.8996
2000.06	15.9472
1999.28	19.1334
1998.49	31.8838
1997.71	22.3149
1996.92	41.4351
1996.14	22.3075
1995.36	15.9313
1994.57	6.37146
1993.79	19.1112
1993	28.662
1992.22	22.289
1991.43	15.9181
1990.64	22.2816
1989.86	19.0953
1989.07	25.4562
1988.29	12.726
1987.5	12.7239
1986.72	28.6239
1985.93	19.0795
1985.14	15.8969
1984.36	28.6097
1983.57	22.2483
1982.78	25.4224
1982	44.4817
1981.21	9.53022
1980.42	9.52863
1979.64	38.1082
1978.85	28.5764
1978.06	22.2224
1977.27	12.6964
1976.49	44.43
1975.7	22.2113
1974.91	34.8977
1974.12	3.17199
1973.33	41.229
1972.54	41.2221
1971.76	28.5336
1970.97	25.359
1970.18	31.6935
1969.39	34.857
1968.6	6.33659
1967.81	44.3487
1967.02	15.8362
1966.23	9.50014
1965.44	37.9942
1964.65	18.9939
1963.86	28.4862
1963.07	9.49381
1962.28	9.49223
1961.49	6.3271
1960.7	37.9563
1959.91	9.48749
1959.12	34.7817
1958.33	6.32289
1957.54	6.32183
1956.75	44.2455
1955.96	31.5986
1955.17	31.5934
1954.37	22.1117
1953.58	25.2663
1952.79	22.1043
1952	9.47169
1951.21	47.3506
1950.42	9.46854
1949.62	31.5565
1948.83	28.3961
1948.04	22.0822
1947.25	28.3867
1946.45	12.6142
1945.66	44.1423
1944.87	-3.1525
1944.07	25.2158
1943.28	31.5145
1942.49	31.5092
1941.69	28.3536
1940.9	28.3488
1940.11	37.7921
1939.31	28.3394
1938.52	34.6312
1937.72	31.4777
1936.93	40.9142
1936.14	22.027
1935.34	25.1695
1934.55	28.311
1933.75	44.032
1932.96	28.3016
1932.16	15.7205
1931.37	15.7178
1930.57	12.5722
1929.77	34.5677
1928.98	28.2779
1928.18	25.1317
1927.39	28.2685
1926.59	18.8425
1925.79	31.399
1925	31.3937
1924.2	15.6942
1923.41	25.1066
1922.61	56.4804
1921.81	25.0982
1921.01	25.094
1920.22	40.7709
1919.42	28.2213
1918.62	31.3518
1917.83	28.2119
1917.03	28.2072
1916.23	34.4697
1915.43	25.0647
1914.63	21.9279
1913.84	28.1883
1913.04	34.4466
1912.24	25.0479
1911.44	37.5656
1910.64	31.2994
1909.84	43.8118
1909.04	34.4178
1908.24	31.2837
1907.45	28.1506
1906.65	43.7825
1905.85	34.3948
1905.05	21.884
1904.25	37.5091
1903.45	40.628
1902.65	37.4965
1901.85	28.1177
1901.05	21.8657
1900.25	21.862
1899.45	28.1036
1898.64	28.0989
1897.84	18.7294
1897.04	43.6947
1896.24	28.0848
1895.44	24.9601
1894.64	34.3143
1893.84	21.8327
1893.04	43.6582
1892.23	46.7688
1891.43	40.5261
1890.63	40.5194
1889.83	24.9308
1889.03	34.2741
1888.22	28.0378
1887.42	34.2626
1886.62	40.4854
1885.81	68.5023
1885.01	40.4719
1884.21	31.127
1883.4	56.0192
1882.6	46.6748
1881.8	21.7779
1880.99	34.2168
1880.19	55.9817
1879.39	49.7531
1878.58	27.9814
1877.78	27.9768
1876.97	46.6201
1876.17	24.8599
1875.36	27.9627
1874.56	37.2773
1873.75	40.377
1872.95	55.8973
1872.14	27.9439
1871.34	58.9829
1870.53	43.4538
1869.73	31.0332
1868.92	21.7196
1868.12	24.8182
1867.31	52.7299
1866.5	40.3161
1865.7	43.4101
1864.89	40.3026
1864.09	27.8971
1863.28	21.6941
1862.47	49.5782
1861.66	49.5699
1860.86	46.464
1860.05	55.7474
1859.24	55.738
1858.44	37.1524
1857.63	40.2417
1856.82	58.805
1856.01	21.6613
1855.2	21.6577
1854.4	30.9344
1853.59	27.8363
1852.78	30.924
1851.97	40.1944
1851.16	55.6445
1850.35	30.9084
1849.54	27.8129
1848.74	30.898
1847.93	40.1607
1847.12	52.509
1846.31	27.7942
1845.5	52.4914
1844.69	30.8721
1843.88	33.9536
1843.07	24.6894
1842.26	30.8565
1841.45	40.1067
1840.64	37.0154
1839.83	49.3455
1839.02	43.1701
1838.2	40.0798
1837.39	64.7333
1836.58	49.3124
1835.77	33.8965
1834.96	24.6479
1834.15	43.1265
1833.34	36.9594
1832.52	52.3503
1831.71	30.7891
1830.9	24.6272
1830.09	43.0903
1829.28	43.083
1828.46	49.2295
1827.65	43.0685
1826.84	52.2887
1826.02	30.7529
1825.21	58.4206
1824.4	43.0395
1823.59	67.6222
1822.77	36.8786
1821.96	55.3086
1821.14	58.3715
1820.33	39.9317
1819.52	49.1384
1818.7	42.9888
1817.89	39.9115
1817.07	27.6264
1816.26	52.1744
1815.44	46.0285
1814.63	49.0887
1813.81	46.0129
1813	58.2732
1812.18	52.1304
1811.37	39.8577
1810.55	39.851
1809.74	67.4288
1808.92	52.0953
1808.11	45.9587
1807.29	49.0143
1806.47	33.6917
1805.66	48.9978
1804.84	42.8659
1804.02	58.1653
1803.21	27.5473
1802.39	52.0251
1801.57	42.837
1800.76	30.5927
1799.94	48.94
1799.12	30.5824
1798.3	42.8081
1797.49	39.7437
1796.67	61.1338
1795.85	48.8988
1795.03	48.8905
1794.21	39.7168
1793.4	54.9833
1792.58	51.9199
1791.76	67.1791
1790.94	36.637
1790.12	42.7359
1789.3	61.041
1788.48	73.2368
1787.66	45.7653
1786.84	48.8081
1786.02	45.7498
1785.2	45.7421
1784.38	48.7833
1783.56	30.4844
1782.74	39.6231
1781.92	39.6164
1781.1	33.5159
1780.28	30.4639
1779.46	24.367
1778.64	33.4989
1777.82	39.5829
1777	42.6206
1776.18	45.6572
1775.35	45.6495
1774.53	57.8129
1773.71	66.9299
1772.89	51.7099
1772.07	45.6186
1771.25	60.8146
1770.42	42.563
1769.6	39.5161
1768.78	48.627
1767.96	27.3481
1767.13	42.5342
1766.31	51.64
1765.49	27.3342
1764.66	39.476
1763.84	36.4332
1763.02	72.8542
1762.19	69.8068
1761.37	45.5185
1760.54	72.8172
1759.72	51.5701
1758.9	60.6605
1758.07	45.4877
1757.25	54.576
1756.42	54.5667
1755.6	36.3717
1754.77	45.4569
1753.95	54.539
1753.12	30.2943
1752.3	69.6652
1751.47	57.5397
1750.65	39.3626
1749.82	57.5203
1748.99	60.5374
1748.17	36.3163
1747.34	72.6203
1746.52	21.1773
1745.69	54.4468
1744.86	63.5105
1744.04	72.5711
1743.21	57.4424
1742.38	45.3416
1741.55	54.4007
1740.73	48.3479
1739.9	45.3185
1739.07	69.4766
1738.24	72.4851
1737.42	51.3349
1736.59	69.4413
1735.76	33.2054
1734.93	66.3996
1734.1	57.3354
1733.27	60.3428
1732.45	48.2661
1731.62	63.3385
1730.79	75.3902
1729.96	45.2264
1729.13	48.2333
1728.3	60.2814
1727.47	45.2034
1726.64	48.2088
1725.81	48.2006
1724.98	63.2526
1724.15	60.2303
1723.32	54.1981
1722.49	63.2204
1721.66	42.1398
1720.83	48.1516
1720	57.1703
1719.17	54.1521
1718.34	39.1032
1717.5	69.1709
1716.67	66.1523
1715.84	60.1282
1715.01	54.1062
1714.18	63.1132
1713.35	42.0683
1712.51	51.0743
1711.68	51.0656
1710.85	63.0703
1710.02	54.0511
1709.18	66.0512
1708.35	51.0309
1707.52	54.0236
1706.68	39.0104
1705.85	54.0052
1705.02	50.9963
1704.18	59.9854
1703.35	65.9727
1702.52	59.965
1701.68	53.9593
1700.85	62.9419
1700.01	74.9181
1699.18	38.9508
1698.35	77.8883
1697.51	38.9375
1696.68	47.915
1695.84	77.8486
1695.01	77.8353
1694.17	59.8632
1693.34	50.875
1692.5	53.8585
1691.66	32.9079
1690.83	65.8047
1689.99	56.8217
1689.16	53.8219
1688.32	56.8023
1687.48	47.8254
1686.65	53.7944
1685.81	41.833
1684.97	50.7886
1684.14	59.7411
1683.3	68.6906
1682.46	53.7487
1681.63	62.6961
1680.79	65.6705
1679.95	50.7367
1679.11	65.6481
1678.27	74.5874
1677.44	71.5917
1676.6	56.6671
1675.76	71.5674
1674.92	77.5181
1674.08	74.5239
1673.24	53.6481
1672.41	68.5387
1671.57	59.5887
1670.73	62.5575
1669.89	65.5252
1669.05	77.4257
1668.21	65.5029
1667.37	53.5842
1666.53	65.4806
1665.69	71.4212
1664.85	50.5814
1664.01	47.5979
1663.17	65.436
1662.33	59.4771
1661.49	71.3603
1660.64	83.2395
1659.8	59.4467
1658.96	71.3239
1658.12	65.3691
1657.28	83.1828
1656.44	56.4358
1655.6	83.1544
1654.75	56.4166
1653.91	77.1885
1653.07	86.0802
1652.23	83.0977
1651.38	59.3454
1650.54	56.3685
1649.7	56.3589
1648.86	77.1095
1648.01	85.9921
1647.17	68.189
1646.33	53.3562
1645.48	71.1294
1644.64	100.749
1643.8	85.9187
1642.95	59.2442
1642.11	53.3107
1641.26	76.9911
1640.42	76.978
1639.57	47.363
1638.73	71.0323
1637.88	53.2652
1637.04	65.0907
1636.19	68.0378
1635.35	56.1955
1634.5	79.8432
1633.66	53.2197
1632.81	79.8159
1631.97	62.0684
1631.12	59.1027
1630.28	67.9565
1629.43	70.899
1628.58	64.9796
1627.74	82.6872
1626.89	59.0522
1626.04	70.8505
1625.2	61.9836
1624.35	73.7774
1623.5	64.913
1622.65	53.1016
1621.81	79.6387
1620.96	58.9816
1620.11	61.92
1619.26	82.5459
1618.41	56.0037
1617.57	67.7824
1616.72	67.7708
1615.87	73.6513
1615.02	53.0199
1614.17	79.5162
1613.32	76.5581
1612.47	64.7688
1611.62	61.8142
1610.77	50.0315
1609.92	70.6206
1609.07	67.6665
1608.22	52.9473
1607.37	91.1715
1606.52	52.9292
1605.67	58.8002
1604.82	52.9111
1603.97	73.475
1603.12	61.7085
1602.27	70.5119
1601.42	73.4373
1600.57	82.2357
1599.72	64.6027
1598.87	46.9757
1598.01	82.1934
1597.16	61.6345
1596.31	49.8861
1595.46	67.4813
1594.61	90.9375
1593.75	79.1901
1592.9	55.7168
1592.05	58.6392
1591.2	61.5606
1590.34	52.7572
1589.49	58.6091
1588.64	49.8092
1587.78	87.8834
1586.93	64.4368
1586.08	61.4973
1585.22	43.9191
1584.37	67.3311
1583.51	64.3926
1582.66	76.0873
1581.81	40.9631
1580.95	46.8069
1580.1	73.1232
1579.24	55.5641
1578.39	78.946
1577.53	61.3919
1576.68	67.2272
1575.82	64.2933
1574.96	64.2822
1574.11	78.8783
1573.25	58.4183
1572.4	64.2491
1571.54	78.8377
1570.68	46.7106
1569.83	46.7026
1568.97	55.4498
1568.11	93.3731
1567.26	70.0178
1566.4	67.0889
1565.54	64.161
1564.69	67.0658
1563.83	72.8851
1562.97	87.4471
1562.11	58.2881
1561.26	93.2449
1560.4	87.4021
1559.54	66.9967
1558.68	75.7224
1557.82	72.7975
1556.96	90.2534
1556.1	81.5052
1555.25	61.1184
1554.39	66.9277
1553.53	64.0068
1552.67	63.9958
1551.81	46.5344
1550.95	61.0659
1550.09	61.0554
1549.23	63.9518
1548.37	63.9408
1547.51	69.7416
1546.65	69.7296
1545.79	75.5274
1544.93	87.132
1544.07	87.117
1543.2	52.2612
1542.34	52.2522
1541.48	81.2673
1540.62	66.7438
1539.76	92.8449
1538.9	95.7298
1538.03	92.813
1537.17	84.0973
1536.31	63.7869
1535.45	69.5738
1534.59	89.8507
1533.72	72.4477
1532.86	84.0249
1532	75.3197
1531.13	75.3067
1530.27	69.5019
1529.41	69.49
1528.54	75.2678
1527.68	72.3605
1526.82	78.1358
1525.95	104.163
1525.09	86.7877
1524.22	72.3106
1523.36	57.8385
1522.49	69.3943
1521.63	69.3823
1520.76	83.8225
1519.9	69.3584
1519.03	83.7936
1518.17	75.1124
1517.3	75.0994
1516.44	80.8624
1515.57	98.1731
1514.71	57.7389
1513.84	92.3663
1512.97	89.4645
1512.11	89.449
1511.24	75.0088
1510.37	74.9959
1509.51	57.6792
1508.64	46.1354
1507.77	83.606
1506.91	103.769
1506.04	69.1673
1505.17	80.6812
1504.3	80.6673
1503.43	72.012
1502.57	80.6395
1501.7	89.264
1500.83	74.8537
1499.96	100.747
1499.09	86.3398
1498.22	74.8149
1497.35	94.941
1496.49	74.7891
1495.62	80.5282
1494.75	60.3857
1493.88	89.1254
1493.01	86.2355
1492.14	80.4726
1491.27	91.9528
1490.4	83.3178
1489.53	80.4309
1488.66	77.545
1487.79	86.1462
1486.92	83.2603
1486.04	100.469
1485.17	83.2315
1484.3	91.8258
1483.43	103.286
1482.56	86.0569
1481.69	106.119
1480.82	91.7623
1479.94	91.7464
1479.07	97.4637
1478.2	83.1165
1477.33	100.296
1476.45	94.5481
1475.58	94.5318
1474.71	80.1949
1473.84	114.544
1472.96	97.3458
1472.09	85.8785
1471.22	111.623
1470.34	97.2953
1469.47	114.445
1468.59	97.2617
1467.72	114.406
1466.85	94.3684
1465.97	131.521
1465.1	108.629
1464.22	68.5959
1463.35	114.307
1462.47	100.001
1461.6	79.987
1460.72	114.247
1459.85	128.506
1458.97	97.0766
1458.1	137.026
1457.22	117.022
1456.34	114.148
1455.47	105.569
1454.59	94.1399
1453.71	119.794
1452.84	79.8486
1451.96	99.7934
1451.08	116.881
1450.21	94.0584
1449.33	108.291
1448.45	99.7243
1447.58	91.1607
1446.7	85.4483
1445.82	96.8247
1444.94	111.044
1444.06	96.7911
1443.18	113.852
1442.31	96.7576
1441.43	113.813
1440.55	110.948
1439.67	110.929
1438.79	99.5343
1437.91	108.047
1437.03	79.5998
1436.15	99.4825
1435.27	110.833
1434.39	119.338
1433.51	105.113
1432.63	99.4135
1431.75	102.236
1430.87	127.773
1429.99	79.4894
1429.11	73.7988
1428.23	82.2997
1427.35	110.66
1426.47	104.967
1425.59	93.6027
1424.7	102.094
1423.82	119.089
1422.94	96.3889
1422.06	133.22
1421.18	110.525
1420.29	119.007
1419.41	144.483
1418.53	124.63
1417.65	96.2885
1416.76	118.924
1415.88	110.41
1415	118.883
1414.11	118.862
1413.23	113.182
1412.35	141.453
1411.46	99
1410.58	107.467
1409.7	115.931
1408.81	107.43
1407.93	115.891
1407.04	107.392
1406.16	118.676
1405.27	118.656
1404.39	104.512
1403.5	107.318
1402.62	112.946
1401.73	95.9877
1400.85	118.552
1399.96	138.287
1399.07	126.976
1398.19	132.597
1397.3	124.111
1396.41	118.449
1395.53	104.33
1394.64	138.143
1393.75	132.481
1392.87	107.094
1391.98	138.071
1391.09	138.047
1390.2	123.939
1389.32	123.917
1388.43	149.238
1387.54	132.32
1386.65	149.186
1385.76	140.717
1384.88	146.32
1383.99	149.108
1383.1	165.959
1382.21	160.306
1381.32	146.218
1380.43	182.741
1379.54	148.978
1378.65	168.625
1377.76	157.356
1376.87	162.948
1375.98	168.537
1375.09	160.082
1374.2	131.975
1373.31	154.412
1372.42	154.385
1371.53	182.423
1370.64	151.525
1369.75	134.665
1368.86	145.862
1367.97	159.859
1367.07	165.439
1366.18	151.393
1365.29	151.366
1364.4	154.143
1363.51	151.314
1362.61	156.89
1361.72	168.067
1360.83	134.431
1359.94	137.207
1359.04	137.183
1358.15	142.758
1357.26	128.739
1356.36	131.515
1355.47	145.481
1354.58	153.847
1353.68	128.65
1352.79	131.423
1351.89	134.196
1351	148.149
1350.11	131.354
1349.21	148.097
1348.32	148.071
1347.42	139.666
1346.53	134.056
1345.63	156.371
1344.73	150.76
1343.84	150.734
1342.94	156.289
1342.05	153.471
1341.15	164.604
1340.26	145.049
1339.36	133.868
1338.46	139.422
1337.57	119.882
1336.67	133.798
1335.77	119.84
1334.87	136.538
1333.98	144.872
1333.08	133.705
1332.18	169.887
1331.28	155.934
1330.39	122.498
1329.49	136.395
1328.59	125.239
1327.69	147.477
1326.79	122.413
1325.89	125.173
1325	125.151
1324.1	139.032
1323.2	127.887
1322.3	133.424
1321.4	119.505
1320.5	152.829
1319.6	125.02
1318.7	105.554
1317.8	144.417
1316.9	105.517
1316	105.498
1315.1	116.583
1314.2	135.99
1313.29	122.092
1312.39	144.265
1311.49	99.8582
1310.59	130.348
1309.69	119.233
1308.79	116.44
1307.89	116.42
1306.98	105.314
1306.08	152.401
1305.18	102.506
1304.28	124.648
1303.37	119.087
1302.47	96.9145
1301.57	116.277
1300.66	124.561
1299.76	130.074
1298.86	135.585
1297.95	116.195
1297.05	149.368
1296.15	141.045
1295.24	157.611
1294.34	154.819
1293.43	160.32
1292.53	149.237
1291.62	163.027
1290.72	143.659
1289.81	171.256
1288.91	154.656
1288	168.435
1287.1	132.516
1286.19	146.294
1285.29	154.547
1284.38	165.557
1283.47	143.458
1282.57	137.916
1281.66	154.439
1280.75	129.596
1279.85	140.6
1278.94	121.281
1278.03	135.039
1277.13	135.015
1276.22	126.727
1275.31	118.441
1274.4	112.913
1273.5	140.428
1272.59	134.897
1271.68	101.843
1270.77	90.8171
1269.86	123.82
1268.95	126.549
1268.04	104.522
1267.14	107.254
1266.23	71.49
1265.32	109.965
1264.41	85.2081
1263.5	107.178
1262.59	85.1782
1261.68	82.416
1260.77	79.6548
1259.86	90.6257
1258.95	131.796
1258.04	93.3391
1257.13	112.536
1256.21	107.028
1255.3	90.5461
1254.39	79.5568
1253.48	82.2857
1252.57	98.7255
1251.66	104.192
1250.75	126.105
1249.83	87.7097
1248.92	115.099
1248.01	82.1989
1247.1	79.4449
1246.18	112.299
1245.27	109.541
1244.36	84.8791
1243.44	98.5519
1242.53	71.1638
1241.62	57.4684
1240.7	114.916
1239.79	84.8044
1238.88	84.7894
1237.96	82.0398
1237.05	98.4305
1236.13	79.2773
1235.22	79.2633
1234.3	84.7148
1233.39	95.6289
1232.47	49.1719
1231.56	73.7449
1230.64	101.04
1229.73	81.9099
1228.81	57.3268
1227.89	70.9635
1226.98	60.0355
1226.06	92.7658
1225.15	73.6539
1224.23	92.7331
1223.31	68.1741
1222.4	79.068
1221.48	81.78
1220.56	76.3146
1219.64	81.7512
1218.73	68.114
1217.81	89.8946
1216.89	70.8136
1215.97	70.8011
1215.05	76.2338
1214.14	62.6096
1213.22	76.207
1212.3	70.7511
1211.38	70.7386
1210.46	70.7261
1209.54	87.0322
1208.62	65.2626
1207.7	97.8767
1206.78	78.8312
1205.86	76.0994
1204.94	59.7819
1204.02	84.2232
1203.1	78.7755
1202.18	81.4775
1201.26	84.1786
1200.34	92.3086
1199.42	81.4344
1198.5	65.136
1197.58	81.4056
1196.66	75.9652
1195.73	70.5266
1194.81	62.3779
1193.89	75.9249
1192.97	94.8894
1192.05	73.1874
1191.12	78.5948
1190.2	59.6131
1189.28	56.8934
1188.35	83.9706
1187.43	70.4145
1186.51	73.1099
1185.59	56.8532
1184.66	78.4976
1183.74	75.7774
1182.81	73.0582
1181.89	83.8668
1180.97	70.3274
1180.04	108.177
1179.12	70.3025
1178.19	83.8074
1177.27	70.2777
1176.34	86.4803
1175.42	97.2731
1174.49	78.345
1173.57	81.0323
1172.64	81.0179
1171.71	83.7037
1170.79	72.8903
1169.86	91.7716
1168.94	80.9606
1168.01	89.0409
1167.08	110.607
1166.16	75.5231
1165.23	91.6903
1164.3	124.03
1163.37	107.833
1162.45	115.9
1161.52	110.489
1160.59	107.776
1159.66	86.2051
1158.73	107.737
1157.81	129.262
1156.88	126.547
1155.95	107.68
1155.02	129.193
1154.09	115.715
1153.16	153.363
1152.23	131.815
1151.3	121.033
1150.37	123.7
1149.44	115.613
1148.51	112.904
1147.58	129.01
1146.65	134.362
1145.72	118.217
1144.79	126.255
1143.86	115.49
1142.93	112.784
1142	102.024
1141.07	102.006
1140.14	112.724
1139.2	123.437
1138.27	115.367
1137.34	144.853
1136.41	112.644
1135.48	136.757
1134.54	112.604
1133.61	104.542
1132.68	117.924
1131.75	163.457
1130.81	144.674
1129.88	152.684
1128.95	141.944
1128.01	141.919
1127.08	147.248
1126.14	163.283
1125.21	163.254
1124.28	181.955
1123.34	181.923
1122.41	173.866
1121.47	173.835
1120.54	184.5
1119.6	195.161
1118.67	179.088
1117.73	205.781
1116.8	168.337
1115.86	170.978
1114.92	170.948
1113.99	165.576
1113.05	149.526
1112.11	170.857
1111.18	165.488
1110.24	154.784
1109.3	122.738
1108.37	120.048
1107.43	146.7
1106.49	152.007
1105.55	127.983
1104.62	141.29
1103.68	130.603
1102.74	154.564
1101.8	154.536
1100.86	165.165
1099.93	215.741
1098.99	178.421
1098.05	191.702
1097.11	202.316
1096.17	207.603
1095.23	202.244
1094.29	215.511
1093.35	188.871
1092.41	183.518
1091.47	167.53
1090.53	170.159
1089.59	148.863
1088.65	170.098
1087.71	199.299
1086.77	130.185
1085.83	164.695
1084.88	140.762
1083.94	138.082
1083	127.437
1082.06	138.033
1081.12	111.468
1080.18	119.409
1079.23	103.469
1078.29	108.756
1077.35	103.432
1076.41	111.369
1075.46	103.395
1074.52	116.63
1073.58	98.0581
1072.63	79.4924
1071.69	103.322
1070.75	95.3569
1069.8	105.933
1068.86	119.154
1067.91	116.485
1066.97	92.6419
1066.02	84.6861
1065.08	100.547
1064.13	100.529
1063.19	105.801
1062.24	89.9148
1061.3	100.475
1060.35	105.744
1059.41	108.369
1058.46	89.8506
1057.51	105.688
1056.57	113.594
1055.62	81.8787
1054.67	102.99
1053.73	110.893
1052.78	100.314
1051.83	100.296
1050.89	84.4446
1049.94	94.9832
1048.99	73.8626
1048.04	108.137
1047.09	108.117
1046.15	102.825
1045.2	84.3541
1044.25	73.7966
1043.3	89.5942
1042.35	76.4049
1041.4	89.5622
1040.45	52.6742
1039.5	78.9972
1038.55	89.5142
1037.6	78.969
1036.66	84.2185
1035.7	81.5721
1034.75	78.9266
1033.8	81.5429
1032.85	55.2289
1031.9	78.8843
1030.95	57.8381
1030	70.9704
1029.05	68.3297
1028.1	91.9658
1027.15	47.2882
1026.19	55.1597
1025.24	99.795
1024.29	65.6429
1023.34	89.2583
1022.39	70.8689
1021.43	65.6076
1020.48	47.229
1019.53	99.6879
1018.57	76.064
1017.62	81.2952
1016.67	65.5489
1015.71	81.2661
1014.76	55.0414
1013.81	70.7548
1012.85	60.2618
1011.9	68.1099
1010.94	57.6211
1009.99	78.5601
1009.03	54.9822
1008.08	75.9143
1007.12	65.4316
1006.17	75.8871
1005.21	73.2571
1004.26	68.0123
1003.3	86.3078
1002.34	88.9073
1001.39	60.1324
1000.43	86.2614
999.476	57.4973
998.519	44.4218
997.562	65.3144
996.605	62.6906
995.648	86.1841
994.69	65.2793
993.733	62.6569
992.775	60.0354
991.817	65.2442
990.859	65.2324
989.901	78.2649
988.942	70.4258
987.983	80.8447
987.025	73.0079
986.066	70.3879
985.107	83.4077
984.147	62.5445
983.188	65.1389
982.228	62.5221
981.268	44.2785
980.308	67.7079
979.348	59.8847
978.388	67.6836
977.427	59.8632
976.466	54.6479
975.506	54.6381
974.545	72.8377
973.583	85.829
972.622	44.207
971.66	67.5986
970.699	64.9869
969.737	77.9703
968.775	57.168
967.812	67.55
966.85	64.9402
965.887	44.1514
964.925	57.1269
963.962	70.0976
962.999	70.085
962.035	59.6913
961.072	70.0598
960.108	51.8868
959.144	33.7204
958.18	46.6814
957.216	54.4518
956.252	54.442
955.287	59.6162
954.323	46.6478
953.358	49.2305
952.393	67.3559
951.428	59.5733
950.462	64.742
949.497	59.5519
948.531	59.5412
947.565	62.1187
946.599	46.5807
945.633	31.0482
944.666	59.4983
943.7	75.0061
942.733	41.3752
941.766	62.0517
940.799	49.1154
939.832	36.1838
938.864	64.6023
937.897	69.7579
936.929	67.1621
935.961	49.0712
934.993	36.1512
934.024	49.0535
933.056	51.626
932.087	59.3592
931.118	56.7681
930.149	72.2373
929.18	54.1682
928.211	69.6323
927.241	61.8842
926.271	69.6072
925.302	72.1722
924.331	59.2736
923.361	64.4162
922.391	66.9808
921.42	74.6959
920.449	79.8329
919.478	84.9681
918.507	74.6555
917.536	43.7557
916.565	48.8946
915.593	61.7504
914.621	72.0291
913.649	64.3001
912.677	84.8609
911.705	82.2745
910.732	69.4066
909.759	77.1045
908.786	51.3937
907.813	79.6459
906.84	87.3378
905.867	74.4805
904.893	71.8992
903.919	79.5884
902.945	71.8733
901.971	89.8254
900.997	79.5452
900.023	64.1378
899.048	53.866
898.073	79.5021
897.098	100.001
896.123	76.9098
895.148	69.2063
894.172	69.1938
893.196	61.4945
892.221	89.6632
891.244	84.5243
890.268	76.8264
889.292	69.1313
888.315	69.1188
887.339	81.9037
886.362	56.2986
885.384	71.6398
884.407	66.5107
883.43	71.6139
882.452	69.0438
881.474	69.0313
880.496	63.9063
879.518	51.1158
878.54	58.7726
877.561	61.3168
876.583	102.176
875.604	53.6328
874.625	81.7113
873.645	81.6966
872.666	66.3664
871.686	71.4586
870.707	63.7908
869.727	81.6374
868.747	66.3184
867.766	43.3542
866.786	86.6926
865.805	71.381
864.824	91.759
863.843	76.452
862.862	71.3422
861.881	73.8768
860.899	101.881
859.917	71.3035
858.936	76.3827
857.953	78.9145
856.971	66.1744
855.989	83.9753
855.006	86.5044
854.023	94.1201
853.04	99.1896
852.057	111.886
851.074	94.0689
850.09	86.426
849.107	78.7859
848.123	68.6075
847.139	96.5412
846.155	88.9034
845.17	60.9513
844.186	88.8712
843.201	99.0099
842.216	63.4564
841.231	93.8984
840.246	73.5827
839.26	88.7906
838.275	68.4832
837.289	65.9348
836.303	70.9938
835.317	55.7707
834.33	65.8989
833.344	68.4211
832.357	58.274
831.37	83.5954
830.383	65.8511
829.396	60.7746
828.408	83.5498
827.421	60.7525
826.433	73.3959
825.445	58.2
824.457	73.3693
823.468	63.2379
822.48	48.0521
821.491	45.5147
820.502	63.2034
819.513	65.7196
818.524	58.126
817.535	60.6422
816.545	55.5786
815.555	60.6202
814.565	53.033
813.575	68.1729
812.585	53.0137
811.594	53.0041
810.604	45.4238
809.613	68.1233
808.622	52.9752
807.631	45.399
806.639	47.9125
805.648	63.0313
804.656	37.8119
803.664	50.4067
802.672	70.5565
801.68	75.5825
800.687	57.936
799.694	50.37
798.702	47.8428
797.709	57.9044
796.715	55.3768
795.722	60.4
794.728	35.2269
793.735	40.252
792.741	47.7906
791.747	30.178
790.752	55.3163
789.758	47.7645
788.763	55.2961
787.768	65.3381
786.773	37.6882
785.778	52.7538
784.783	37.6745
783.787	42.6899
782.792	65.2786
781.796	47.6949
780.8	70.2744
779.803	60.2242
778.807	52.6866
777.81	62.7107
776.813	37.6196
775.816	50.1503
774.819	50.1411
773.822	32.5858
772.824	57.6413
771.827	52.6194
770.829	47.5993
769.831	57.6097
768.832	55.0949
767.834	25.0386
766.835	45.0612
765.836	52.5618
764.837	52.5522
763.838	50.0406
762.839	70.0441
761.839	40.0179
760.84	47.5126
759.84	55.0045
758.84	52.4947
757.839	49.9858
756.839	52.4756
755.838	34.9773
754.837	49.9585
753.836	57.4418
752.835	49.9402
751.834	62.4139
750.832	54.9142
749.83	47.4172
748.828	44.9134
747.826	59.8736
746.824	54.8741
745.822	69.827
744.819	59.8408
743.816	39.8865
742.813	59.8189
741.81	44.856
740.806	49.8309
739.803	54.8039
738.799	44.8314
737.795	59.7642
736.791	54.7739
735.787	67.2102
734.782	37.3322
733.778	49.7671
732.773	52.2459
731.768	44.774
730.762	64.6618
729.757	72.1095
728.751	37.2912
727.746	59.655
726.74	77.0403
725.733	62.1179
724.727	59.6223
723.721	69.5466
722.714	59.6005
721.707	72.004
720.7	64.5435
719.693	54.6038
718.685	49.6307
717.678	57.0649
716.67	39.69
715.662	59.5241
714.654	61.9929
713.645	44.6267
712.637	59.4914
711.628	81.7857
710.619	74.337
709.61	61.9362
708.601	66.8788
707.591	64.39
706.582	61.9022
705.572	76.7446
704.562	59.4043
703.551	69.2923
702.541	74.2281
701.531	64.3193
700.52	71.7276
699.509	49.4582
698.498	71.7013
697.486	49.4401
696.475	66.7319
695.463	64.2485
694.451	64.2368
693.439	66.6952
692.427	74.0921
691.414	64.2014
690.402	71.5961
689.389	83.9249
688.376	81.4416
687.363	71.5567
686.349	51.8074
685.336	64.1308
684.322	64.119
683.308	44.3819
682.294	51.7694
681.28	66.5485
680.265	69.0005
679.251	61.5963
678.236	68.9752
677.221	64.0366
676.206	66.4874
675.19	39.3927
674.175	61.5398
673.159	44.3005
672.143	66.4385
671.127	61.5059
670.11	76.2533
669.094	68.8613
668.077	68.8486
667.06	56.5438
666.043	63.9074
665.026	73.7257
664.008	68.798
662.991	63.8721
661.973	51.5795
660.955	54.0258
659.936	73.658
658.918	61.3703
657.899	56.4503
656.881	83.433
655.862	63.79
654.843	68.6842
653.823	56.4088
652.804	53.9463
651.784	71.098
650.764	80.8897
649.744	85.7763
648.724	68.6084
647.703	58.7964
646.683	66.1338
645.662	90.6111
644.641	75.9034
643.619	85.6817
642.598	58.7423
641.576	63.6258
640.555	78.2943
639.533	58.7099
638.511	68.4822
637.488	90.4777
636.466	78.2366
635.443	75.7777
634.42	56.2118
633.397	73.3063
632.374	90.3944
631.35	75.7219
630.326	78.1502
629.303	75.694
628.279	65.9149
627.254	73.2253
626.23	65.8906
625.205	87.8379
624.18	82.9428
623.155	70.7323
622.13	87.7894
621.105	60.9536
620.079	87.757
619.054	82.8663
618.028	73.1039
617.002	75.5267
615.975	90.1282
614.949	73.0634
613.922	68.1799
612.895	77.9055
611.868	87.6276
610.841	80.3104
609.813	68.1296
608.786	75.4153
607.758	72.9691
606.73	75.3875
605.702	75.3735
604.673	72.9287
603.645	70.4847
602.616	63.1815
601.587	72.8883
600.558	104.454
599.528	72.8614
598.499	63.1349
597.469	72.8345
596.439	60.6842
595.409	109.211
594.379	92.2059
593.348	77.6327
592.318	72.7672
591.287	87.3045
590.256	82.439
589.224	79.9995
588.193	70.2896
587.161	87.24
586.129	72.6865
585.097	75.0955
584.065	67.8157
583.033	67.8031
582	89.5804
580.967	82.3019
579.935	84.7069
578.901	82.2715
577.868	77.4177
576.834	94.3353
575.801	74.9706
574.767	65.2849
573.733	58.0203
572.698	96.6826
571.664	91.8315
570.629	91.8145
569.594	89.3818
568.559	96.611
567.524	72.4449
566.488	74.8458
565.453	67.5902
564.417	98.953
563.381	98.9347
562.345	106.154
561.308	91.6616
560.272	91.6446
559.235	96.4502
558.198	89.1999
557.161	69.9005
556.123	89.1668
555.086	77.103
554.048	91.5428
553.01	105.977
551.972	89.1007
550.933	91.4919
549.895	84.2532
548.856	77.0173
547.817	93.8474
546.778	96.2359
545.739	89.0017
544.699	81.7702
543.66	79.3504
542.62	84.144
541.58	72.11
540.539	100.935
539.499	86.4999
538.458	84.0815
537.417	55.2433
536.376	96.0575
535.335	110.446
534.294	93.6213
533.252	64.8027
532.21	88.7873
531.168	93.5692
530.126	67.1654
529.084	83.9412
528.041	64.7426
526.998	81.5126
525.955	83.8945
524.912	88.672
523.869	103.032
522.825	103.013
521.782	102.994
520.738	112.554
519.693	129.293
518.649	105.33
517.605	126.852
516.56	88.5403
515.515	81.3462
514.47	102.86
513.425	88.4909
512.379	100.43
511.333	100.412
510.287	93.2222
509.241	95.5948
508.195	107.524
507.149	114.671
506.102	119.427
505.055	109.852
504.008	121.77
502.961	107.424
501.913	95.4704
500.866	81.1347
499.818	100.207
498.77	121.657
497.722	104.939
496.673	95.3816
495.625	95.3639
494.576	92.9624
493.527	88.1787
492.478	114.373
491.428	102.44
490.379	90.5114
489.329	104.783
488.279	121.431
487.229	104.744
486.178	102.345
485.128	90.4271
484.077	83.2726
483.026	88.0147
481.975	126.052
480.923	95.1156
479.872	87.9655
478.82	87.9491
477.768	68.9202
476.716	99.7969
475.664	104.53
474.611	109.261
473.558	92.6168
472.506	90.2252
471.452	94.9561
470.399	73.5773
469.346	90.1747
468.292	104.393
467.238	97.2575
466.184	92.496
465.13	111.449
464.075	104.315
463.02	118.518
461.966	109.016
460.91	116.105
459.855	123.19
458.8	120.798
457.744	127.88
456.688	113.65
455.632	123.098
454.576	130.176
453.519	118.319
452.463	108.833
451.406	108.813
450.349	104.063
449.292	141.877
448.234	132.394
447.176	96.9132
446.119	118.165
445.061	125.231
444.002	129.933
442.944	118.099
441.885	127.523
440.826	110.971
439.767	155.803
438.708	151.053
437.649	127.427
436.589	150.997
435.529	143.892
434.469	129.714
433.409	139.122
432.349	129.666
431.288	127.284
430.227	131.974
429.166	124.881
428.105	103.655
427.044	96.5696
425.982	101.261
424.92	117.724
423.858	108.286
422.796	105.912
421.734	134.13
420.671	105.872
419.608	87.0341
418.545	112.888
417.482	110.515
416.419	82.2834
415.355	133.979
414.291	112.804
413.227	119.831
412.163	91.6185
411.099	110.391
410.034	122.112
408.969	119.742
407.904	115.024
406.839	96.2268
405.774	112.635
404.708	93.8446
403.642	121.975
402.576	131.333
401.51	126.619
400.444	140.661
399.377	107.82
398.31	114.83
397.243	114.809
396.176	107.76
395.109	114.766
394.041	107.719
392.973	117.064
391.905	121.724
390.837	124.041
389.769	102.959
388.7	116.976
387.631	119.294
386.562	144.996
385.493	126.263
384.424	135.591
383.354	163.613
382.284	179.941
381.214	196.262
380.144	212.578
379.074	170.497
378.003	179.806
376.932	168.099
375.861	140.056
374.79	147.031
373.719	158.67
372.647	167.972
371.575	130.621
370.503	128.264
369.431	123.577
368.359	107.235
367.286	144.507
366.213	132.828
365.14	116.494
364.067	114.143
362.994	121.108
361.92	104.786
360.846	146.672
359.772	114.057
358.698	118.69
357.624	137.282
356.549	113.993
355.474	118.623
354.399	116.275
353.324	102.303
352.248	118.556
351.173	137.128
350.097	162.663
349.021	141.723
347.945	120.79
346.868	146.314
345.791	113.779
344.715	139.295
343.638	129.984
342.56	116.035
341.483	109.052
340.405	136.87
339.327	127.567
338.249	106.672
337.171	118.244
336.092	120.54
335.014	111.247
333.935	127.447
332.856	127.423
331.777	125.082
330.697	120.427
329.617	134.297
328.537	127.327
327.457	131.932
326.377	118.022
325.297	101.804
324.216	117.978
323.135	113.33
322.054	104.059
320.972	115.599
319.891	124.823
318.809	110.933
317.727	94.7375
316.645	97.0298
315.563	115.49
314.48	113.159
313.397	122.373
312.315	96.9567
311.231	113.095
310.148	106.151
309.064	101.516
307.981	122.258
306.897	92.2526
305.812	106.071
304.728	92.2178
303.643	101.42
302.559	103.706
301.474	117.511
300.388	103.667
299.303	117.467
298.217	124.353
297.132	124.33
296.046	112.796
294.959	105.87
293.873	112.754
292.786	105.83
291.699	112.711
290.612	94.2915
289.525	91.9744
288.438	87.3591
287.35	105.731
286.262	98.8164
285.174	82.7144
284.086	126.345
282.997	103.354
281.909	105.631
280.82	78.0601
279.731	96.409
278.641	80.3256
277.552	91.7833
276.462	89.4718
275.372	114.686
274.282	80.2649
273.192	116.935
272.101	110.036
271.01	112.307
269.919	93.9535
268.828	96.2268
267.737	123.697
266.645	98.4806
265.553	100.752
264.461	96.154
263.369	130.47
262.277	114.426
261.184	102.964
260.091	89.2183
258.998	102.925
257.905	107.479
256.812	93.7403
255.718	107.438
254.624	98.2758
253.53	93.687
252.436	105.092
251.341	130.199
250.247	118.755
249.152	91.3328
248.057	118.71
246.961	114.123
245.866	139.203
244.77	125.487
243.674	104.933
242.578	98.0711
241.482	100.333
240.385	88.9145
239.288	118.53
238.191	118.508
237.094	113.928
235.997	116.185
234.899	125.273
233.801	125.25
232.703	132.056
231.605	132.031
230.507	109.247
229.408	131.981
228.309	120.581
227.21	100.086
226.111	122.809
225.011	97.774
223.912	118.216
222.812	136.377
221.712	122.716
220.611	111.332
219.511	131.756
218.41	118.104
217.309	133.977
216.208	113.518
215.107	136.196
214.005	113.475
212.903	99.839
211.801	138.387
210.699	122.483
209.597	122.46
208.494	131.506
207.391	142.816
206.288	138.255
205.185	145.027
204.082	106.484
202.978	129.116
201.874	126.827
200.77	129.067
199.666	101.875
198.561	108.647
197.456	126.73
196.352	119.918
195.246	122.158
194.141	122.134
193.036	137.94
191.93	113.044
190.824	133.367
189.718	126.562
188.611	119.759
187.505	153.623
186.398	135.524
185.291	115.174
184.184	158.051
183.076	112.872
181.968	135.421
180.861	160.218
179.752	130.857
178.644	139.855
177.536	119.531
176.427	162.351
175.318	126.249
174.209	144.257
173.1	126.201
171.99	128.43
170.88	155.438
169.77	132.885
168.66	162.134
167.55	146.343
166.439	108.048
165.328	126.032
164.217	146.26
163.106	141.732
161.994	121.462
160.883	123.687
159.771	152.893
158.659	141.624
157.547	143.845
156.434	155.053
155.321	157.27
154.208	179.703
153.095	132.506
151.982	116.763
150.868	172.865
149.754	145.897
148.64	154.846
147.526	166.035
146.412	154.787
145.297	157
144.182	172.667
143.067	172.635
141.952	154.669
140.836	174.81
139.721	192.702
138.605	154.58
137.489	190.389
136.372	170.197
135.256	163.448
134.139	188.041
133.022	190.243
131.905	217.06
130.787	201.357
129.67	223.687
128.552	216.935
127.434	219.13
126.316	228.03
125.197	230.222
124.078	227.943
122.959	221.197
121.84	252.429
120.721	263.548
119.601	227.769
118.482	247.819
117.362	229.914
116.241	258.883
115.121	267.758
114	292.247
112.88	252.043
111.758	265.375
110.637	243.028
109.516	269.732
108.394	283.053
107.272	276.313
106.15	274.033
105.028	302.937
103.905	253.884
102.782	282.782
101.659	258.239
100.536	271.545
