3201.19	-21.0561
3200.6	16.8448
3200	8.42115
3199.41	29.4696
3198.82	0
3198.22	12.626
3197.63	58.9124
3197.03	12.6222
3196.44	21.0338
3195.85	25.2368
3195.25	4.20549
3194.66	16.8194
3194.06	12.6127
3193.47	16.8143
3192.87	21.0147
3192.28	-4.20231
3191.68	0
3191.09	29.4073
3190.49	16.8016
3189.9	12.5993
3189.3	8.39828
3188.71	-16.794
3188.11	-4.19787
3187.52	25.1834
3186.92	0
3186.32	4.19597
3185.73	37.758
3185.13	16.7788
3184.54	16.7762
3183.94	12.5803
3183.34	8.38559
3182.75	4.19216
3182.15	4.19153
3181.55	29.3362
3180.96	4.19026
3180.36	8.37925
3179.76	4.18899
3179.17	12.5651
3178.57	-12.5632
3177.97	8.37418
3177.38	16.7458
3176.78	20.9291
3176.18	4.18519
3175.58	4.18456
3174.99	20.9196
3174.39	12.5499
3173.79	29.2786
3173.19	0
3172.6	16.7256
3172	25.0845
3171.4	25.0807
3170.8	25.0769
3170.2	8.35772
3169.6	16.7129
3169.01	-12.5328
3168.41	4.17696
3167.81	25.058
3167.21	16.7028
3166.61	37.5756
3166.01	29.221
3165.41	12.5214
3164.81	20.8658
3164.22	25.0352
3163.62	37.5471
3163.02	33.3702
3162.42	8.34128
3161.82	29.1901
3161.22	41.6938
3160.62	-4.16874
3160.02	16.6725
3159.42	20.8374
3158.82	0
3158.22	16.6649
3157.62	4.16559
3157.02	8.32991
3156.42	12.493
3155.82	8.32739
3155.22	12.4892
3154.62	12.4873
3154.02	20.809
3153.42	8.32234
3152.81	20.8027
3152.21	24.9594
3151.61	16.6371
3151.01	-8.31729
3150.41	24.9481
3149.81	8.31477
3149.21	20.7838
3148.61	20.7806
3148	12.4665
3147.4	20.7743
3146.8	20.7712
3146.2	4.1536
3145.6	20.7649
3144.99	-4.15234
3144.39	-4.15171
3143.79	8.30217
3143.19	4.15046
3142.59	8.29965
3141.98	16.5968
3141.38	-8.29713
3140.78	-8.29587
3140.17	0
3139.57	49.7601
3138.97	12.4381
3138.37	20.7271
3137.76	12.4344
3137.16	4.14416
3136.56	-4.14353
3135.95	41.429
3135.35	8.28455
3134.75	20.7082
3134.14	4.14102
3133.54	37.2635
3132.93	33.1181
3132.33	20.6957
3131.73	12.4155
3131.12	0
3130.52	4.13725
3129.91	8.27323
3129.31	16.544
3128.7	24.8122
3128.1	16.5389
3127.49	37.2069
3126.89	0
3126.28	-12.3985
3125.68	20.6611
3125.07	16.5264
3124.47	16.5239
3123.86	24.782
3123.26	12.3891
3122.65	20.6454
3122.05	28.8992
3121.44	16.5113
3120.84	4.1272
3120.23	28.886
3119.62	16.5038
3119.02	12.376
3118.41	12.3741
3117.81	8.24813
3117.2	8.24688
3116.59	0
3115.99	12.3666
3115.38	8.24312
3114.77	20.6047
3114.17	-4.1203
3113.56	4.11968
3112.95	20.5953
3112.35	8.23685
3111.74	0
3111.13	28.8202
3110.53	16.4662
3109.92	4.11592
3109.31	8.23059
3108.7	-12.344
3108.09	12.3421
3107.49	0
3106.88	4.11279
3106.27	20.5608
3105.66	20.5577
3105.06	36.9982
3104.45	12.3309
3103.84	16.4386
3103.23	4.10904
3102.62	20.5421
3102.01	24.6467
3101.4	16.4286
3100.8	20.5327
3100.19	8.21182
3099.58	32.8423
3098.97	8.20932
3098.36	-4.10404
3097.75	28.7239
3097.14	-12.3084
3096.53	16.4086
3095.92	20.5077
3095.31	12.3027
3094.7	4.10029
3094.09	16.3987
3093.48	16.3962
3092.87	36.8857
3092.26	12.2934
3091.65	8.19433
3091.04	12.2896
3090.43	28.6714
3089.82	16.3812
3089.21	24.568
3088.6	24.5643
3087.99	16.3737
3087.38	16.3712
3086.77	8.18435
3086.16	8.1831
3085.55	16.3637
3084.93	0
3084.32	-4.08968
3083.71	-8.17812
3083.1	4.08843
3082.49	24.5269
3081.88	12.2616
3081.27	-8.17313
3080.65	20.4297
3080.04	32.6826
3079.43	20.4235
3078.82	16.3363
3078.21	36.7511
3077.59	20.4141
3076.98	4.08221
3076.37	28.5711
3075.76	-4.08096
3075.14	0
3074.53	0
3073.92	24.4746
3073.3	0
3072.69	36.7006
3072.08	8.15445
3071.46	16.3064
3070.85	12.2279
3070.24	32.6029
3069.62	4.07474
3069.01	12.2224
3068.4	8.14699
3067.78	28.5101
3067.17	0
3066.56	12.2149
3065.94	24.4261
3065.33	-4.07039
3064.71	12.2093
3064.1	24.4149
3063.48	20.3426
3062.87	-4.0679
3062.25	0
3061.64	28.4666
3061.02	0
3060.41	24.3925
3059.79	20.324
3059.18	16.2567
3058.56	24.3813
3057.95	0
3057.33	24.3739
3056.72	8.12339
3056.1	16.2443
3055.49	12.1814
3054.87	0
3054.26	20.2961
3053.64	28.4102
3053.02	-8.11595
3052.41	4.05735
3051.79	4.05673
3051.17	8.11223
3050.56	4.05549
3049.94	-4.05487
3049.32	20.2713
3048.71	-4.05364
3048.09	0
3047.47	20.262
3046.86	12.1553
3046.24	12.1535
3045.62	-8.10108
3045.01	12.1498
3044.39	20.2465
3043.77	12.146
3043.15	8.09612
3042.54	12.1423
3041.92	28.3278
3041.3	16.1848
3040.68	4.04559
3040.06	12.1349
3039.45	-12.133
3038.83	8.08746
3038.21	16.1724
3037.59	4.04249
3036.97	24.2512
3036.35	-16.165
3035.73	24.2438
3035.12	12.1201
3034.5	12.1182
3033.88	0
3033.26	0
3032.64	20.1877
3032.02	24.2216
3031.4	20.1816
3030.78	16.1428
3030.16	12.1052
3029.54	4.03446
3028.92	-8.06768
3028.3	12.0997
3027.68	32.2608
3027.06	16.128
3026.44	12.0941
3025.82	36.2768
3025.2	-8.06027
3024.58	28.2066
3023.96	8.05781
3023.34	16.1131
3022.72	0
3022.1	0
3021.48	16.1057
3020.86	8.05164
3020.24	-4.0252
3019.62	-12.0738
3018.99	8.04794
3018.37	20.1168
3017.75	0
3017.13	12.0664
3016.51	-4.0215
3015.89	12.0627
3015.26	24.1216
3014.64	-12.059
3014.02	28.1333
3013.4	4.01842
3012.78	4.01781
3012.15	8.03438
3011.53	24.0994
3010.91	-4.01596
3010.29	24.0921
3009.66	20.0736
3009.04	-4.01411
3008.42	16.054
3007.79	-4.01288
3007.17	12.0368
3006.55	12.035
3005.92	16.0441
3005.3	12.0313
3004.68	4.00981
3004.05	20.046
3003.43	8.01715
3002.81	24.0478
3002.18	24.0441
3001.56	16.0269
3000.94	24.0367
3000.31	12.0165
2999.69	8.00977
2999.06	32.0342
2998.44	4.00366
2997.81	24.0183
2997.19	12.0073
2996.56	16.0073
2995.94	-8.0024
2995.31	-4.00059
2994.69	27.9998
2994.06	19.9968
2993.44	11.9962
2992.81	27.9869
2992.19	19.9876
2991.56	7.99381
2990.94	23.9777
2990.31	23.9741
2989.69	15.9803
2989.06	23.9667
2988.43	19.9692
2987.81	19.9661
2987.18	19.963
2986.56	3.992
2985.93	19.9569
2985.3	27.9354
2984.68	15.9606
2984.05	23.9373
2983.42	3.98893
2982.8	7.97664
2982.17	19.9385
2981.54	19.9355
2980.92	27.9054
2980.29	27.9011
2979.66	15.941
2979.03	27.8925
2978.41	23.9042
2977.78	27.8839
2977.15	31.8624
2976.52	15.9288
2975.89	23.8895
2975.27	23.8858
2974.64	39.8036
2974.01	35.8177
2973.38	3.97913
2972.75	19.8926
2972.13	19.8896
2971.5	27.8411
2970.87	31.8135
2970.24	0
2969.61	15.9019
2968.98	11.9246
2968.35	31.7939
2967.72	11.9209
2967.09	39.7302
2966.46	3.97241
2965.84	23.8308
2965.21	0
2964.58	27.794
2963.95	3.96996
2963.32	7.9387
2962.69	35.7187
2962.06	23.8088
2961.43	-11.9026
2960.8	19.8345
2960.17	0
2959.54	3.96569
2958.91	7.93016
2958.27	3.96447
2957.64	-3.96386
2957.01	27.7427
2956.38	15.8505
2955.75	15.8481
2955.12	15.8457
2954.49	19.804
2953.86	15.8408
2953.23	11.8788
2952.59	19.7949
2951.96	15.8335
2951.33	19.7888
2950.7	7.9143
2950.07	15.8262
2949.44	7.91186
2948.8	27.6872
2948.17	19.7736
2947.54	27.6787
2946.91	3.95349
2946.27	35.576
2945.64	51.3796
2945.01	19.7583
2944.38	19.7553
2943.74	15.8018
2943.11	19.7492
2942.48	3.94923
2941.84	19.7431
2941.21	31.5841
2940.58	11.8422
2939.94	23.6808
2939.31	15.7847
2938.68	7.89116
2938.04	7.88994
2937.41	19.7218
2936.78	43.3813
2936.14	39.4315
2935.51	15.7702
2934.87	3.94193
2934.24	7.88264
2933.61	0
2932.97	27.5807
2932.34	23.637
2931.7	15.7556
2931.07	3.93828
2930.43	35.4391
2929.8	0
2929.16	19.6823
2928.53	27.551
2927.89	11.8057
2927.26	15.7386
2926.62	19.6702
2925.98	19.6671
2925.35	27.5297
2924.71	27.5255
2924.08	11.7948
2923.44	11.793
2922.81	7.86078
2922.17	35.368
2921.53	-7.85835
2920.9	19.6428
2920.26	0
2919.62	15.7094
2918.99	23.5605
2918.35	27.483
2917.71	3.92554
2917.08	35.3244
2916.44	-3.92433
2915.8	0
2915.16	11.7693
2914.53	11.7675
2913.89	19.6095
2913.25	-3.9213
2912.61	39.2069
2911.98	11.7603
2911.34	35.2753
2910.7	62.702
2910.06	27.4279
2909.43	31.3413
2908.79	11.7512
2908.15	19.5823
2907.51	11.7475
2906.87	7.83048
2906.23	15.6585
2905.59	7.82806
2904.96	23.4806
2904.32	7.82564
2903.68	11.7366
2903.04	-7.82322
2902.4	19.555
2901.76	11.7312
2901.12	11.7294
2900.48	11.7276
2899.84	15.6343
2899.2	19.5399
2898.56	23.4443
2897.92	31.2542
2897.28	0
2896.64	27.339
2896	31.2397
2895.36	15.6174
2894.72	35.1338
2894.08	31.2252
2893.44	7.80509
2892.8	0
2892.16	35.112
2891.52	27.3051
2890.88	11.7004
2890.24	19.4976
2889.59	19.4946
2888.95	11.695
2888.31	15.5909
2887.67	3.89711
2887.03	31.1721
2886.39	31.1673
2885.74	-3.8953
2885.1	0
2884.46	0
2883.82	11.6805
2883.18	15.5716
2882.53	27.246
2881.89	15.5667
2881.25	-3.89108
2880.61	38.9048
2879.96	27.2291
2879.32	27.2249
2878.68	23.332
2878.04	23.3284
2877.39	19.4373
2876.75	19.4343
2876.11	7.77253
2875.46	11.657
2874.82	7.77012
2874.18	15.5378
2873.53	7.76771
2872.89	7.76651
2872.24	15.5306
2871.6	15.5282
2870.96	-3.88145
2870.31	19.4042
2869.67	34.9222
2869.02	7.75929
2868.38	-15.5162
2867.73	19.3922
2867.09	34.9006
2866.44	11.6317
2865.8	23.2598
2865.15	7.75207
2864.51	19.3772
2863.86	19.3742
2863.22	15.4969
2862.57	50.3572
2861.93	15.4921
2861.28	27.107
2860.64	19.3591
2859.99	11.6137
2859.35	19.3531
2858.7	34.8303
2858.05	23.2166
2857.41	7.73765
2856.76	38.6823
2856.11	-3.86763
2855.47	11.6011
2854.82	19.3321
2854.17	3.86583
2853.53	27.0566
2852.88	23.1878
2852.23	7.72805
2851.59	38.6343
2850.94	30.9026
2850.29	3.86223
2849.64	15.4465
2849	7.72206
2848.35	11.5813
2847.7	23.159
2847.05	7.71846
2846.41	15.4345
2845.76	7.71606
2845.11	15.4297
2844.46	30.8547
2843.81	19.2812
2843.17	15.4225
2842.52	11.5651
2841.87	11.5633
2841.22	11.5615
2840.57	7.70648
2839.92	26.9685
2839.27	-3.85204
2838.62	23.1087
2837.97	0
2837.33	11.5507
2836.68	23.0979
2836.03	15.3962
2835.38	19.2423
2834.73	0
2834.08	0
2833.43	34.6199
2832.78	19.2303
2832.13	34.6091
2831.48	7.68973
2830.83	11.5328
2830.18	23.062
2829.53	30.7446
2828.87	7.68494
2828.22	19.2094
2827.57	15.3651
2826.92	23.0441
2826.27	-3.84008
2825.62	30.7159
2824.97	11.5167
2824.32	3.83829
2823.67	19.1885
2823.01	34.5339
2822.36	26.8555
2821.71	19.1795
2821.06	3.8353
2820.41	15.3388
2819.76	7.66822
2819.1	30.6681
2818.45	0
2817.8	3.83232
2817.15	22.9903
2816.49	7.66226
2815.84	15.3221
2815.19	15.3197
2814.54	-3.82934
2813.88	7.65749
2813.23	19.1407
2812.58	38.2755
2811.92	7.65391
2811.27	15.3054
2810.62	-11.4773
2809.96	19.1258
2809.31	15.2983
2808.66	3.82398
2808	-7.64676
2807.35	-3.82278
2806.69	15.2888
2806.04	7.64319
2805.38	11.463
2804.73	34.3836
2804.08	3.81981
2803.42	11.4576
2802.77	7.63723
2802.11	3.81802
2801.46	7.63485
2800.8	11.4505
2800.15	3.81624
2799.49	26.7095
2798.84	-3.81505
2798.18	0
2797.53	3.81386
2796.87	30.5061
2796.21	11.438
2795.56	41.9328
2794.9	26.6804
2794.25	15.2435
2793.59	22.8617
2792.93	11.4291
2792.28	38.091
2791.62	7.61702
2790.96	7.61583
2790.31	-7.61464
2789.65	11.4202
2788.99	15.2245
2788.34	3.80554
2787.68	11.4148
2787.02	-11.4131
2786.37	-3.80376
2785.71	7.60633
2785.05	22.8154
2784.39	22.8119
2783.74	11.4042
2783.08	11.4024
2782.42	19.001
2781.76	3.7996
2781.1	11.397
2780.45	26.5889
2779.79	-3.79782
2779.13	22.7834
2778.47	26.5765
2777.81	26.5723
2777.15	7.59091
2776.5	7.58972
2775.84	3.79427
2775.18	11.381
2774.52	22.7585
2773.86	15.17
2773.2	18.9595
2772.54	11.3739
2771.88	11.3721
2771.22	11.3704
2770.56	7.57906
2769.9	7.57787
2769.24	-15.1534
2768.58	-18.9388
2767.92	7.57432
2767.26	7.57314
2766.6	3.78598
2765.94	22.7123
2765.28	11.3544
2764.62	0
2763.96	26.4853
2763.3	3.78302
2762.64	3.78243
2761.98	7.56367
2761.31	26.4687
2760.65	3.78065
2759.99	18.9003
2759.33	3.77947
2758.67	11.3366
2758.01	7.55658
2757.35	-3.7777
2756.68	18.8855
2756.02	18.8826
2755.36	-11.3278
2754.7	26.4274
2754.04	11.3242
2753.37	11.3225
2752.71	15.0943
2752.05	15.0919
2751.39	33.9515
2750.72	22.6308
2750.06	22.6272
2749.4	7.54123
2748.73	-3.77002
2748.07	11.3083
2747.41	26.3819
2746.74	15.073
2746.08	7.53533
2745.42	11.3012
2744.75	18.8324
2744.09	22.5954
2743.42	26.3571
2742.76	18.8236
2742.1	18.8206
2741.43	11.2906
2740.77	22.5777
2740.1	22.5741
2739.44	33.8559
2738.77	-7.52236
2738.11	30.0847
2737.44	3.76
2736.78	-3.75941
2736.11	18.7941
2735.45	15.0329
2734.78	22.5459
2734.12	3.75706
2733.45	18.7823
2732.79	-3.75588
2732.12	0
2731.46	18.7735
2730.79	3.75411
2730.12	18.7676
2729.46	18.7647
2728.79	7.5047
2728.12	15.007
2727.46	22.507
2726.79	7.50117
2726.12	26.25
2725.46	26.2459
2724.79	7.49764
2724.12	7.49646
2723.46	7.49529
2722.79	3.74706
2722.12	29.9717
2721.46	18.7294
2720.79	18.7265
2720.12	18.7235
2719.45	29.9529
2718.78	7.48706
2718.12	22.4577
2717.45	18.7118
2716.78	0
2716.11	26.1883
2715.44	3.7406
2714.78	0
2714.11	7.47884
2713.44	-11.2165
2712.77	29.906
2712.1	29.9013
2711.43	3.73707
2710.76	11.2095
2710.09	18.6795
2709.42	7.47063
2708.75	-11.2042
2708.09	14.9366
2707.42	11.2007
2706.75	7.46594
2706.08	26.1267
2705.41	11.1954
2704.74	26.1185
2704.07	11.1919
2703.4	11.1901
2702.73	-3.72945
2702.06	3.72887
2701.38	11.1848
2700.71	26.0939
2700.04	18.6355
2699.37	33.5387
2698.7	7.45188
2698.03	14.9014
2697.36	29.7981
2696.69	7.44836
2696.02	11.1708
2695.34	7.44602
2694.67	18.6121
2694	7.44368
2693.33	0
2692.66	18.6034
2691.99	22.3205
2691.31	7.439
2690.64	14.8757
2689.97	14.8733
2689.3	7.4355
2688.62	18.5858
2687.95	22.2995
2687.28	0
2686.61	14.8616
2685.93	11.1445
2685.26	18.5712
2684.59	22.2819
2683.91	22.2784
2683.24	14.85
2682.57	3.7119
2681.89	7.42264
2681.22	14.8429
2680.55	0
2679.87	22.2574
2679.2	22.2539
2678.52	18.542
2677.85	18.5391
2677.17	11.1217
2676.5	22.2399
2675.83	14.8243
2675.15	14.8219
2674.48	7.4098
2673.8	-3.70432
2673.13	0
2672.45	-3.70315
2671.78	11.1077
2671.1	14.8079
2670.42	22.2084
2669.75	18.5041
2669.07	11.1007
2668.4	18.4983
2667.72	14.7963
2667.05	25.8894
2666.37	22.1874
2665.69	11.092
2665.02	3.69674
2664.34	11.0885
2663.66	3.69557
2662.99	14.78
2662.31	22.1665
2661.63	29.5506
2660.96	18.4662
2660.28	11.078
2659.6	11.0762
2658.93	7.383
2658.25	3.69092
2657.57	7.38067
2656.89	22.1385
2656.22	18.4459
2655.54	36.8859
2654.86	33.1921
2654.18	18.4371
2653.5	22.1211
2652.83	25.8039
2652.15	29.4855
2651.47	-3.6851
2650.79	-7.36904
2650.11	22.1036
2649.43	3.68336
2648.76	22.0967
2648.08	0
2647.4	22.0897
2646.72	0
2646.04	11.0414
2645.36	11.0396
2644.68	25.7551
2644	7.35742
2643.32	11.0344
2642.64	18.3878
2641.96	36.7697
2641.28	3.67639
2640.6	25.7307
2639.92	7.35046
2639.24	18.3732
2638.56	18.3703
2637.88	25.7144
2637.2	3.67291
2636.52	11.017
2635.84	29.374
2635.16	0
2634.47	22.0235
2633.79	7.34002
2633.11	11.0083
2632.43	11.0066
2631.75	7.33654
2631.07	33.0092
2630.39	7.33423
2629.7	10.9996
2629.02	29.3276
2628.34	29.323
2627.66	21.9888
2626.98	7.32843
2626.29	3.66364
2625.61	21.9784
2624.93	18.3124
2624.25	0
2623.56	10.984
2622.88	32.9467
2622.2	18.3008
2621.51	3.65959
2620.83	29.2721
2620.15	-10.9753
2619.46	29.2628
2618.78	14.6291
2618.1	10.9701
2617.41	7.31223
2616.73	0
2616.04	0
2615.36	7.30876
2614.68	25.5766
2613.99	10.9597
2613.31	3.65265
2612.62	10.9562
2611.94	0
2611.25	7.30183
2610.57	-21.902
2609.88	18.2488
2609.2	25.5443
2608.51	18.243
2607.83	14.5921
2607.14	18.2372
2606.46	10.9406
2605.77	18.2315
2605.09	21.8743
2604.4	10.9354
2603.71	18.2228
2603.03	25.5079
2602.34	18.217
2601.66	36.4283
2600.97	21.8535
2600.28	40.0585
2599.6	18.2055
2598.91	-10.9216
2598.22	7.2799
2597.54	25.4756
2596.85	-3.63879
2596.16	10.9147
2595.47	14.5506
2594.79	0
2594.1	14.546
2593.41	21.8155
2592.72	36.3534
2592.04	14.539
2591.35	25.4393
2590.66	25.4353
2589.97	14.5321
2589.28	29.0597
2588.6	14.5275
2587.91	-3.63131
2587.22	14.5229
2586.53	3.63016
2585.84	18.1479
2585.15	21.774
2584.46	10.8853
2583.77	0
2583.09	29.0182
2582.4	21.7602
2581.71	18.1306
2581.02	10.8767
2580.33	18.1249
2579.64	3.6244
2578.95	3.62383
2578.26	14.493
2577.57	3.62268
2576.88	25.3547
2576.19	7.24306
2575.5	10.8629
2574.81	10.8611
2574.12	18.099
2573.42	14.4769
2572.73	14.4746
2572.04	10.8542
2571.35	7.23502
2570.66	7.23387
2569.97	14.4654
2569.28	32.5421
2568.59	32.5369
2567.89	18.0732
2567.2	32.5266
2566.51	32.5214
2565.82	10.8387
2565.13	10.837
2564.43	-14.4471
2563.74	14.4448
2563.05	7.22124
2562.36	25.2703
2561.66	10.8284
2560.97	18.0445
2560.28	21.65
2559.59	-3.60775
2558.89	25.2503
2558.2	21.6396
2557.51	3.60604
2556.81	10.8164
2556.12	14.4196
2555.43	25.2302
2554.73	3.60374
2554.04	18.0159
2553.34	10.8078
2552.65	-3.60203
2551.96	10.8044
2551.26	7.20176
2550.57	0
2549.87	14.3989
2549.18	3.59916
2548.48	14.3944
2547.79	32.3822
2547.09	0
2546.4	25.1781
2545.7	0
2545.01	10.7872
2544.31	3.59516
2543.62	28.7567
2542.92	21.5641
2542.23	17.9672
2541.53	10.7786
2540.83	17.9615
2540.14	10.7752
2539.44	21.5469
2538.75	17.9529
2538.05	21.5401
2537.35	17.9472
2536.66	17.9444
2535.96	0
2535.26	14.3509
2534.57	21.5229
2533.87	28.6927
2533.17	21.5161
2532.48	10.7563
2531.78	28.679
2531.08	28.6744
2530.38	21.5024
2529.68	7.16632
2528.99	7.16518
2528.29	14.3281
2527.59	32.233
2526.89	21.4853
2526.19	0
2525.5	10.7392
2524.8	7.15834
2524.1	10.7358
2523.4	14.3121
2522.7	42.9295
2522	10.7307
2521.3	10.729
2520.6	17.8787
2519.91	25.0262
2519.21	7.14922
2518.51	0
2517.81	3.57347
2517.11	7.1458
2516.41	28.5786
2515.71	7.14352
2515.01	3.57119
2514.31	10.7119
2513.61	21.4203
2512.91	24.9864
2512.21	7.13783
2511.51	-3.56834
2510.8	14.2711
2510.1	-3.56721
2509.4	7.13327
2508.7	24.9625
2508	24.9585
2507.3	10.6948
2506.6	21.3862
2505.9	10.6914
2505.19	10.6897
2504.49	3.56266
2503.79	14.2484
2503.09	42.7382
2502.39	32.0486
2501.69	7.12077
2500.98	17.7991
2500.28	14.237
2499.58	10.676
2498.88	17.7905
2498.17	24.9028
2497.47	17.7849
2496.77	10.6692
2496.06	21.335
2495.36	31.9974
2494.66	24.8829
2493.95	24.8789
2493.25	14.2143
2492.55	10.659
2491.84	17.7622
2491.14	31.9668
2490.44	35.513
2489.73	7.10146
2489.03	42.602
2488.32	3.5496
2487.62	24.8432
2486.91	10.6454
2486.21	28.3832
2485.5	10.642
2484.8	21.2806
2484.09	10.6386
2483.39	10.6369
2482.68	7.09012
2481.98	14.178
2481.27	35.4393
2480.57	3.54336
2479.86	3.54279
2479.16	10.6267
2478.45	21.25
2477.74	42.4931
2477.04	10.6216
2476.33	10.6199
2475.63	3.5394
2474.92	10.6165
2474.21	28.3061
2473.51	10.6131
2472.8	24.7599
2472.09	7.07313
2471.39	7.072
2470.68	35.3544
2469.97	24.7441
2469.26	21.2058
2468.56	7.06748
2467.85	3.53317
2467.14	7.06521
2466.43	17.6602
2465.73	28.2518
2465.02	0
2464.31	3.53035
2463.6	17.6489
2462.89	7.05843
2462.18	0
2461.48	14.1123
2460.77	10.5826
2460.06	17.6348
2459.35	38.7903
2458.64	21.155
2457.93	17.6263
2457.22	3.5247
2456.51	10.5724
2455.8	10.5707
2455.09	24.661
2454.38	3.52244
2453.67	21.1313
2452.96	3.52131
2452.25	3.52075
2451.54	3.52018
2450.83	3.51962
2450.12	17.5953
2449.41	28.1479
2448.7	31.6613
2447.99	3.51736
2447.28	7.0336
2446.57	21.0974
2445.86	3.51567
2445.15	17.5755
2444.43	-10.5436
2443.72	31.6258
2443.01	21.0805
2442.3	17.5643
2441.59	28.0983
2440.88	7.02346
2440.16	24.5782
2439.45	28.0848
2438.74	14.0402
2438.03	28.0758
2437.32	24.5624
2436.6	17.5417
2435.89	10.5234
2435.18	21.0433
2434.46	21.04
2433.75	14.0244
2433.04	10.5166
2432.32	24.5348
2431.61	14.0176
2430.9	17.5192
2430.18	10.5099
2429.47	24.5191
2428.76	10.5065
2428.04	17.508
2427.33	38.5114
2426.61	21.0029
2425.9	17.4996
2425.19	10.4981
2424.47	0
2423.76	24.4876
2423.04	31.479
2422.33	10.4913
2421.61	24.4758
2420.9	20.9759
2420.18	24.4679
2419.47	-3.49486
2418.75	6.98859
2418.04	10.4812
2417.32	-3.49317
2416.6	27.9409
2415.89	13.9682
2415.17	17.4574
2414.46	3.49093
2413.74	24.4326
2413.02	17.449
2412.31	3.48925
2411.59	13.9547
2410.87	17.4406
2410.16	6.97513
2409.44	34.87
2408.72	13.9458
2408.01	45.3165
2407.29	17.4266
2406.57	24.3933
2405.85	45.2946
2405.14	17.4182
2404.42	34.8308
2403.7	27.8602
2402.98	13.9278
2402.26	31.3326
2401.55	34.8084
2400.83	17.4014
2400.11	-3.47972
2399.39	24.3541
2398.67	10.4358
2397.95	3.47804
2397.23	13.9099
2396.51	20.8615
2395.8	20.8582
2395.08	-3.4758
2394.36	24.3267
2393.64	17.3734
2392.92	20.8447
2392.2	3.47356
2391.48	20.838
2390.76	20.8347
2390.04	10.4157
2389.32	-3.47133
2388.6	24.2954
2387.88	6.94042
2387.16	20.8179
2386.44	-3.46909
2385.72	27.7483
2384.99	34.6797
2384.27	17.3371
2383.55	20.8011
2382.83	10.3989
2382.11	0
2381.39	3.46518
2380.67	34.6462
2379.95	31.1766
2379.22	-6.92701
2378.5	27.7036
2377.78	20.7743
2377.06	17.3092
2376.33	6.92255
2375.61	24.225
2374.89	10.3805
2374.17	27.6768
2373.44	6.91809
2372.72	0
2372	0
2371.28	10.3721
2370.55	24.1977
2369.83	17.2813
2369.11	10.3671
2368.38	31.0963
2367.66	3.45458
2366.93	17.2701
2366.21	6.90694
2365.49	10.3587
2364.76	10.3571
2364.04	24.1626
2363.31	31.0612
2362.59	20.7041
2361.86	24.1509
2361.14	-6.89914
2360.42	34.4901
2359.69	6.89691
2358.97	27.5832
2358.24	6.89469
2357.51	17.2339
2356.79	17.2312
2356.06	10.337
2355.34	13.7805
2354.61	17.2228
2353.89	13.776
2353.16	6.8869
2352.43	13.7716
2351.71	24.0964
2350.98	27.5342
2350.26	13.7649
2349.53	-6.88134
2348.8	17.2006
2348.07	3.43956
2347.35	10.317
2346.62	20.6307
2345.89	10.3137
2345.17	-3.43734
2344.44	20.6207
2343.71	13.7449
2342.98	13.7427
2342.26	20.6107
2341.53	13.7382
2340.8	17.17
2340.07	34.3345
2339.34	34.3289
2338.62	30.891
2337.89	30.886
2337.16	13.7249
2336.43	20.584
2335.7	-6.86024
2334.97	-3.42956
2334.24	24.0031
2333.51	34.2845
2332.78	34.279
2332.05	27.4188
2331.33	10.2804
2330.6	10.2787
2329.87	20.5541
2329.14	10.2754
2328.41	30.8212
2327.68	6.84804
2326.95	3.42347
2326.22	20.5375
2325.48	10.2671
2324.75	20.5308
2324.02	20.5275
2323.29	3.4207
2322.56	17.1007
2321.83	6.83918
2321.1	30.7713
2320.37	20.5109
2319.64	30.7614
2318.9	17.0869
2318.17	23.9178
2317.44	23.9139
2316.71	3.41572
2315.98	6.83032
2315.25	23.9023
2314.51	30.7265
2313.78	13.654
2313.05	20.4777
2312.32	30.7116
2311.58	17.0592
2310.85	40.9355
2310.12	37.5181
2309.38	23.8713
2308.65	13.6385
2307.92	34.0908
2307.18	10.2256
2306.45	23.8558
2305.72	3.40742
2304.98	-3.40687
2304.25	23.8442
2303.51	17.0288
2302.78	10.2156
2302.05	27.2373
2301.31	20.4247
2300.58	-6.80712
2299.84	23.821
2299.11	30.6221
2298.37	3.4019
2297.64	17.0068
2296.9	10.2024
2296.17	0
2295.43	23.7979
2294.7	6.79829
2293.96	23.7901
2293.23	0
2292.49	10.1925
2291.75	6.79388
2291.02	16.9819
2290.28	10.1875
2289.55	44.1387
2288.81	20.3684
2288.07	-3.39418
2287.34	10.1809
2286.6	6.78616
2285.86	16.9627
2285.12	10.1759
2284.39	13.5657
2283.65	10.1726
2282.91	16.9516
2282.18	16.9489
2281.44	6.77845
2280.7	27.1094
2279.96	30.4931
2279.22	20.3255
2278.49	20.3222
2277.75	27.0918
2277.01	23.7015
2276.27	23.6976
2275.53	33.8482
2274.79	16.9214
2274.05	6.76745
2273.32	20.299
2272.58	10.1479
2271.84	30.4387
2271.1	16.9076
2270.36	10.1429
2269.62	10.1413
2268.88	3.37988
2268.14	50.6899
2267.4	33.7878
2266.66	0
2265.92	20.2661
2265.18	16.8857
2264.44	23.6361
2263.7	10.1281
2262.96	3.37548
2262.22	16.8747
2261.48	33.7438
2260.74	23.6169
2259.99	0
2259.25	6.74548
2258.51	20.2331
2257.77	13.4866
2257.03	16.8555
2256.29	13.4822
2255.55	16.85
2254.8	20.2167
2254.06	10.1067
2253.32	33.6835
2252.58	23.5746
2251.83	33.6725
2251.09	16.8335
2250.35	10.0985
2249.61	3.36561
2248.86	13.4602
2248.12	6.72903
2247.38	20.1838
2246.63	10.0903
2245.89	43.7173
2245.15	13.4493
2244.4	-3.36177
2243.66	26.8898
2242.92	23.5248
2242.17	20.1608
2241.43	16.7979
2240.68	20.1542
2239.94	30.2264
2239.19	26.8635
2238.45	36.9314
2237.7	23.4979
2236.96	30.2067
2236.21	20.1345
2235.47	20.1312
2234.72	16.7733
2233.98	13.4165
2233.23	-6.70713
2232.49	23.4711
2231.74	20.1148
2231	33.5193
2230.25	10.0541
2229.5	-3.35083
2228.76	33.5029
2228.01	36.8472
2227.27	23.4444
2226.52	20.0919
2225.77	20.0886
2225.03	26.7804
2224.28	13.388
2223.53	33.4646
2222.78	16.7296
2222.04	0
2221.29	20.069
2220.54	26.7542
2219.79	10.0312
2219.05	13.3728
2218.3	-10.0279
2217.55	13.3684
2216.8	16.7078
2216.05	10.023
2215.31	33.4046
2214.56	13.3597
2213.81	6.67874
2213.06	30.0494
2212.31	23.368
2211.56	3.33774
2210.81	33.3719
2210.06	30.0298
2209.31	13.3444
2208.56	10.0067
2207.81	6.67002
2207.07	23.3413
2206.32	10.0018
2205.57	23.3336
2204.82	26.6627
2204.06	16.6614
2203.31	43.3127
2202.56	16.656
2201.81	9.99196
2201.06	29.971
2200.31	16.6478
2199.56	19.9741
2198.81	13.3139
2198.06	19.9676
2197.31	13.3096
2196.56	6.65369
2195.8	6.6526
2195.05	29.9318
2194.3	9.97564
2193.55	9.97401
2192.8	23.2689
2192.04	23.2651
2191.29	13.2922
2190.54	29.9025
2189.79	9.96585
2189.03	13.2856
2188.28	36.5295
2187.53	23.2422
2186.78	19.9187
2186.02	19.9154
2185.27	33.1869
2184.52	23.227
2183.76	6.63521
2183.01	3.31706
2182.25	6.63304
2181.5	23.2118
2180.75	13.2617
2179.99	36.4638
2179.24	16.5717
2178.48	9.94142
2177.73	33.1326
2176.97	23.189
2176.22	26.4974
2175.46	16.5582
2174.71	23.1777
2173.95	19.8633
2173.2	29.7901
2172.44	9.9284
2171.69	26.4714
2170.93	6.61676
2170.18	16.5392
2169.42	29.7657
2168.67	9.92027
2167.91	23.1435
2167.15	29.7511
2166.4	9.91539
2165.64	13.2184
2164.88	9.91214
2164.13	6.60701
2163.37	23.1208
2162.61	26.4194
2161.86	29.7169
2161.1	16.5067
2160.34	23.1056
2159.58	29.7023
2158.83	29.6975
2158.07	26.3934
2157.31	29.6877
2156.55	9.89428
2155.79	23.0829
2155.04	26.3761
2154.28	23.0753
2153.52	13.1837
2152.76	26.3631
2152	9.88455
2151.24	26.3545
2150.48	0
2149.72	9.87968
2148.96	32.9269
2148.21	39.5058
2147.45	3.29161
2146.69	23.0375
2145.93	0
2145.17	32.8999
2144.41	13.1578
2143.65	9.86672
2142.89	23.0186
2142.13	19.727
2141.37	29.5856
2140.6	3.28675
2139.84	32.8621
2139.08	16.4283
2138.32	9.85538
2137.56	26.2767
2136.8	3.28405
2136.04	22.9846
2135.28	6.56594
2134.52	3.28243
2133.75	26.2551
2132.99	16.4068
2132.23	29.5273
2131.47	26.2422
2130.71	19.6784
2129.94	19.6752
2129.18	16.3933
2128.42	26.2249
2127.65	26.2206
2126.89	16.3852
2126.13	3.2765
2125.37	29.4837
2124.6	22.928
2123.84	26.1991
2123.08	16.3717
2122.31	9.82142
2121.55	13.0931
2120.78	29.4546
2120.02	22.9053
2119.26	19.6299
2118.49	16.3556
2117.73	16.3529
2116.96	29.4304
2116.2	22.8865
2115.43	26.1517
2114.67	9.80528
2113.9	3.26789
2113.14	52.2776
2112.37	9.80044
2111.61	22.8639
2110.84	26.1259
2110.08	13.0608
2109.31	3.26466
2108.55	9.79237
2107.78	22.8451
2107.01	22.8414
2106.25	19.5751
2105.48	19.5719
2104.71	16.3072
2103.95	16.3045
2103.18	16.3018
2102.41	22.8188
2101.65	22.815
2100.88	13.035
2100.11	26.0657
2099.34	22.8038
2098.58	16.2857
2097.81	29.3095
2097.04	19.5364
2096.27	-3.25553
2095.51	26.04
2094.74	26.0357
2093.97	9.76177
2093.2	6.50678
2092.43	32.5285
2091.66	13.0093
2090.89	35.7696
2090.13	6.50249
2089.36	26.0057
2088.59	29.2515
2087.82	19.4978
2087.05	16.2455
2086.28	19.4914
2085.51	22.7362
2084.74	29.2274
2083.97	29.2226
2083.2	16.2321
2082.43	12.9835
2081.66	32.4535
2080.89	6.48963
2080.12	19.4657
2079.35	29.1937
2078.58	29.1889
2077.81	16.2134
2077.03	35.6635
2076.26	22.6912
2075.49	32.4107
2074.72	29.1648
2073.95	19.44
2073.18	16.1973
2072.4	16.1946
2071.63	25.9071
2070.86	22.665
2070.09	32.3732
2069.32	32.3679
2068.54	32.3625
2067.77	25.8858
2067	6.47037
2066.23	19.4079
2065.45	9.70235
2064.68	19.4015
2063.91	0
2063.13	32.3251
2062.36	12.9279
2061.59	19.3887
2060.81	12.9237
2060.04	6.46076
2059.26	29.0686
2058.49	35.5224
2057.72	35.5165
2056.94	19.3695
2056.17	12.9108
2055.39	25.8174
2054.62	19.3599
2053.84	45.1655
2053.07	35.4813
2052.29	12.9002
2051.52	19.3471
2050.74	22.5678
2049.97	12.8938
2049.19	25.7833
2048.41	22.5566
2047.64	12.8874
2046.86	32.2131
2046.09	16.1039
2045.31	28.9822
2044.53	28.9774
2043.76	32.1918
2042.98	32.1865
2042.2	12.8725
2041.43	9.65274
2040.65	28.9534
2039.87	32.1652
2039.09	19.2959
2038.32	28.9391
2037.54	25.7194
2036.76	41.787
2035.98	25.7108
2035.21	22.4933
2034.43	35.3407
2033.65	35.3348
2032.87	28.9055
2032.09	9.63358
2031.31	25.6853
2030.53	22.4709
2029.76	32.096
2028.98	25.6725
2028.2	41.711
2027.42	28.872
2026.64	25.6598
2025.86	22.4486
2025.08	9.61923
2024.3	19.2353
2023.52	19.2321
2022.74	25.6385
2021.96	22.43
2021.18	35.2413
2020.4	9.60967
2019.62	16.0135
2018.84	32.0216
2018.06	25.613
2017.28	35.2121
2016.49	22.404
2015.71	32.0004
2014.93	28.7956
2014.15	31.9898
2013.37	35.1829
2012.59	35.1771
2011.8	31.9738
2011.02	28.7717
2010.24	19.1779
2009.46	25.5663
2008.68	38.3432
2007.89	28.7526
2007.11	28.7478
2006.33	41.5177
2005.55	44.704
2004.76	22.3483
2003.98	28.7287
2003.2	38.2986
2002.41	44.6743
2001.63	19.143
2000.84	19.1398
2000.06	15.9472
1999.28	22.3223
1998.49	25.507
1997.71	22.3149
1996.92	25.4985
1996.14	57.3622
1995.36	19.1175
1994.57	38.2287
1993.79	35.0372
1993	35.0314
1992.22	15.9207
1991.43	28.6525
1990.64	19.0985
1989.86	25.4604
1989.07	22.2742
1988.29	19.089
1987.5	22.2668
1986.72	28.6239
1985.93	31.7991
1985.14	38.1526
1984.36	12.7154
1983.57	50.8532
1982.78	19.0668
1982	44.4817
1981.21	34.9441
1980.42	41.2907
1979.64	34.9325
1978.85	25.4012
1978.06	19.0478
1977.27	28.5669
1976.49	47.6036
1975.7	19.0383
1974.91	44.4152
1974.12	25.3759
1973.33	19.0288
1972.54	22.1965
1971.76	34.8744
1970.97	50.718
1970.18	28.5241
1969.39	19.0129
1968.6	38.0195
1967.81	28.5099
1967.02	22.1707
1966.23	28.5004
1965.44	28.4957
1964.65	22.1596
1963.86	47.477
1963.07	18.9876
1962.28	34.8048
1961.49	31.6355
1960.7	25.3042
1959.91	34.7875
1959.12	9.48591
1958.33	18.9687
1957.54	3.16092
1956.75	25.2831
1955.96	41.0782
1955.17	34.7527
1954.37	28.4293
1953.58	28.4246
1952.79	37.8931
1952	15.7862
1951.21	22.0969
1950.42	22.0933
1949.62	6.3113
1948.83	31.5513
1948.04	22.0822
1947.25	44.157
1946.45	47.3032
1945.66	22.0712
1944.87	34.6775
1944.07	22.0638
1943.28	40.9688
1942.49	18.9055
1941.69	25.2032
1940.9	15.7493
1940.11	22.0454
1939.31	22.0417
1938.52	18.8898
1937.72	40.921
1936.93	37.7669
1936.14	37.7606
1935.34	44.0467
1934.55	28.311
1933.75	37.7417
1932.96	25.1569
1932.16	15.7205
1931.37	31.4357
1930.57	31.4304
1929.77	53.4228
1928.98	47.1299
1928.18	43.9806
1927.39	21.9866
1926.59	9.42126
1925.79	31.399
1925	43.9512
1924.2	31.3885
1923.41	50.2132
1922.61	21.9646
1921.81	28.2355
1921.01	25.094
1920.22	25.0898
1919.42	34.4927
1918.62	28.2166
1917.83	31.3465
1917.03	34.4754
1916.23	40.7369
1915.43	34.4639
1914.63	31.3256
1913.84	21.9242
1913.04	37.5781
1912.24	28.1789
1911.44	21.9133
1910.64	34.4294
1909.84	43.8118
1909.04	28.16
1908.24	46.9256
1907.45	59.4291
1906.65	56.2918
1905.85	28.1412
1905.05	25.0102
1904.25	40.6348
1903.45	50.0037
1902.65	49.9954
1901.85	24.9935
1901.05	15.6183
1900.25	40.6008
1899.45	34.3488
1898.64	46.8314
1897.84	34.3373
1897.04	24.9684
1896.24	24.9642
1895.44	28.0801
1894.64	24.9559
1893.84	34.3086
1893.04	34.3028
1892.23	24.9433
1891.43	15.587
1890.63	18.7012
1889.83	31.1635
1889.03	18.695
1888.22	40.499
1887.42	49.8366
1886.62	15.5713
1885.81	24.9099
1885.01	34.2454
1884.21	28.0143
1883.4	56.0192
1882.6	28.0049
1881.8	40.4448
1880.99	55.991
1880.19	21.7706
1879.39	18.6574
1878.58	49.7448
1877.78	27.9768
1876.97	34.1881
1876.17	34.1824
1875.36	46.6045
1874.56	49.7031
1873.75	49.6948
1872.95	46.581
1872.14	34.1537
1871.34	55.8785
1870.53	40.3499
1869.73	24.8266
1868.92	40.3364
1868.12	40.3296
1867.31	34.1193
1866.5	27.9111
1865.7	55.8129
1864.89	37.2024
1864.09	34.0965
1863.28	52.6857
1862.47	46.4796
1861.66	34.0793
1860.86	49.5616
1860.05	30.9708
1859.24	34.0621
1858.44	55.7287
1857.63	43.3372
1856.82	27.855
1856.01	27.8503
1855.2	30.9396
1854.4	55.6819
1853.59	37.115
1852.78	43.2936
1851.97	58.7457
1851.16	49.4618
1850.35	46.3626
1849.54	37.0839
1848.74	37.0776
1847.93	27.8036
1847.12	37.0652
1846.31	30.8825
1845.5	58.6668
1844.69	37.0465
1843.88	46.3003
1843.07	55.5511
1842.26	43.1991
1841.45	40.1067
1840.64	24.6769
1839.83	52.4296
1839.02	43.1701
1838.2	33.9136
1837.39	46.2381
1836.58	52.3944
1835.77	30.815
1834.96	46.2148
1834.15	36.9656
1833.34	49.2792
1832.52	52.3503
1831.71	36.947
1830.9	46.1759
1830.09	46.1682
1829.28	36.9283
1828.46	33.8453
1827.65	39.9922
1826.84	18.4548
1826.02	33.8282
1825.21	43.0468
1824.4	33.8168
1823.59	36.8848
1822.77	36.8786
1821.96	49.1632
1821.14	39.9384
1820.33	52.2183
1819.52	52.2095
1818.7	39.9182
1817.89	61.4023
1817.07	64.4615
1816.26	76.727
1815.44	64.4398
1814.63	21.4763
1813.81	52.148
1813	67.4743
1812.18	49.0639
1811.37	36.7918
1810.55	45.9819
1809.74	33.7144
1808.92	42.902
1808.11	39.8309
1807.29	42.8876
1806.47	58.1947
1805.66	55.1226
1804.84	55.1133
1804.02	45.92
1803.21	70.3988
1802.39	48.9648
1801.57	33.6576
1800.76	55.0668
1799.94	48.94
1799.12	39.7571
1798.3	45.8658
1797.49	55.0297
1796.67	61.1338
1795.85	30.5617
1795.03	24.4453
1794.21	58.0477
1793.4	45.8194
1792.58	30.5411
1791.76	33.5895
1790.94	42.7431
1790.12	48.841
1789.3	51.8848
1788.48	51.8761
1787.66	42.7143
1786.84	48.8081
1786.02	48.7998
1785.2	60.9895
1784.38	70.1261
1783.56	48.7751
1782.74	39.6231
1781.92	63.9957
1781.1	60.938
1780.28	57.8813
1779.46	39.5963
1778.64	39.5896
1777.82	63.9417
1777	54.7979
1776.18	45.6572
1775.35	30.433
1774.53	69.984
1773.71	42.5918
1772.89	36.5011
1772.07	57.7836
1771.25	54.7331
1770.42	45.6032
1769.6	45.5955
1768.78	45.5878
1767.96	45.5801
1767.13	54.6869
1766.31	45.5647
1765.49	48.5941
1764.66	60.7324
1763.84	57.686
1763.02	57.6762
1762.19	51.5963
1761.37	69.795
1760.54	60.681
1759.72	63.7043
1758.9	36.3963
1758.07	51.5527
1757.25	48.512
1756.42	48.5038
1755.6	33.3407
1754.77	78.7919
1753.95	48.4791
1753.12	42.4121
1752.3	90.8676
1751.47	39.3693
1750.65	42.3905
1749.82	66.6024
1748.99	51.4568
1748.17	66.5799
1747.34	54.4652
1746.52	48.4053
1745.69	57.4716
1744.86	45.3646
1744.04	33.2617
1743.21	48.3725
1742.38	54.4099
1741.55	36.2671
1740.73	39.2827
1739.9	27.1911
1739.07	54.373
1738.24	33.2223
1737.42	48.3152
1736.59	63.4029
1735.76	54.3362
1734.93	48.2906
1734.1	57.3354
1733.27	51.2914
1732.45	60.3326
1731.62	57.3062
1730.79	36.1873
1729.96	45.2264
1729.13	69.3354
1728.3	45.2111
1727.47	66.2983
1726.64	33.1436
1725.81	69.2884
1724.98	57.2285
1724.15	63.2419
1723.32	48.1761
1722.49	66.2309
1721.66	51.1697
1720.83	75.2368
1720	48.1434
1719.17	51.1437
1718.34	60.1588
1717.5	45.1115
1716.67	54.1246
1715.84	33.0705
1715.01	36.0708
1714.18	72.1294
1713.35	57.0927
1712.51	54.0786
1711.68	36.0463
1710.85	66.0737
1710.02	45.0426
1709.18	48.0373
1708.35	57.0346
1707.52	66.0288
1706.68	60.016
1705.85	57.0055
1705.02	89.9934
1704.18	53.9869
1703.35	50.9789
1702.52	65.9615
1701.68	47.9639
1700.85	62.9419
1700.01	71.9213
1699.18	56.9281
1698.35	47.9313
1697.51	65.8943
1696.68	62.8884
1695.84	74.8544
1695.01	71.848
1694.17	53.8768
1693.34	59.853
1692.5	80.7878
1691.66	53.8494
1690.83	68.7958
1689.99	47.8498
1689.16	74.7526
1688.32	59.7919
1687.48	41.8472
1686.65	77.7031
1685.81	77.6898
1684.97	65.7264
1684.14	68.7022
1683.3	65.704
1682.46	71.6649
1681.63	68.6672
1680.79	62.6854
1679.95	62.6748
1679.11	77.5841
1678.27	62.6534
1677.44	68.6087
1676.6	71.5795
1675.76	86.4772
1674.92	71.5552
1674.08	77.5049
1673.24	62.5894
1672.41	83.4384
1671.57	44.6915
1670.73	68.5153
1669.89	77.4389
1669.05	62.5362
1668.21	80.3899
1667.37	74.4224
1666.53	59.5278
1665.69	89.2765
1664.85	68.4336
1664.01	83.2963
1663.17	80.3078
1662.33	95.1634
1661.49	74.3337
1660.64	80.2667
1659.8	74.3084
1658.96	59.4365
1658.12	77.2543
1657.28	89.1244
1656.44	59.4061
1655.6	80.1846
1654.75	97.9867
1653.91	65.3133
1653.07	80.1436
1652.23	71.2266
1651.38	56.3781
1650.54	106.803
1649.7	68.2239
1648.86	74.1438
1648.01	74.1311
1647.17	77.0832
1646.33	82.9985
1645.48	68.1657
1644.64	62.2276
1643.8	59.2543
1642.95	88.8663
1642.11	65.1575
1641.26	68.1075
1640.42	71.0566
1639.57	68.0843
1638.73	65.113
1637.88	91.7344
1637.04	59.1734
1636.19	91.7031
1635.35	73.9415
1634.5	97.5861
1633.66	68.0029
1632.81	88.6843
1631.97	88.6692
1631.12	100.475
1630.28	67.9565
1629.43	73.8531
1628.58	67.9332
1627.74	88.5934
1626.89	62.0048
1626.04	79.7068
1625.2	44.274
1624.35	70.8263
1623.5	70.8142
1622.65	64.9019
1621.81	53.0925
1620.96	53.0834
1620.11	53.0743
1619.26	85.494
1618.41	53.0562
1617.57	64.8353
1616.72	70.7174
1615.87	79.5434
1615.02	55.9654
1614.17	47.1207
1613.32	58.8908
1612.47	64.7688
1611.62	47.0965
1610.77	41.2024
1609.92	55.908
1609.07	55.8984
1608.22	61.7719
1607.37	61.7613
1606.52	58.8102
1605.67	55.8601
1604.82	79.3666
1603.97	85.231
1603.12	61.7085
1602.27	79.3259
1601.42	82.2498
1600.57	73.4247
1599.72	44.0473
1598.87	61.6556
1598.01	58.7096
1597.16	79.2444
1596.31	55.755
1595.46	58.6794
1594.61	49.869
1593.75	64.5252
1592.9	55.7168
1592.05	70.367
1591.2	73.2864
1590.34	55.6882
1589.49	49.8177
1588.64	61.529
1587.78	46.8712
1586.93	61.5079
1586.08	79.068
1585.22	64.4147
1584.37	76.1134
1583.51	58.5387
1582.66	73.1609
1581.81	40.9631
1580.95	84.8375
1580.1	70.1983
1579.24	73.1107
1578.39	55.5546
1577.53	55.5451
1576.68	67.2272
1575.82	73.0605
1574.96	64.2822
1574.11	61.3498
1573.25	70.102
1572.4	49.6471
1571.54	55.4784
1570.68	58.3883
1569.83	58.3782
1568.97	75.8787
1568.11	52.5224
1567.26	67.1004
1566.4	67.0889
1565.54	49.5789
1564.69	69.9817
1563.83	43.7311
1562.97	52.4683
1562.11	61.2025
1561.26	46.6224
1560.4	99.0557
1559.54	72.8225
1558.68	55.3356
1557.82	78.6213
1556.96	93.1648
1556.1	64.0398
1555.25	66.9392
1554.39	81.4772
1553.53	61.0974
1552.67	55.2691
1551.81	61.0764
1550.95	61.0659
1550.09	72.685
1549.23	63.9518
1548.37	78.4728
1547.51	78.4593
1546.65	66.8242
1545.79	66.8127
1544.93	60.9924
1544.07	78.4053
1543.2	84.1986
1542.34	26.1261
1541.48	60.9504
1540.62	66.7438
1539.76	75.4365
1538.9	60.919
1538.03	58.0081
1537.17	75.3976
1536.31	72.4852
1535.45	72.4727
1534.59	55.0698
1533.72	81.1415
1532.86	52.1534
1532	84.0104
1531.13	69.5139
1530.27	86.8774
1529.41	98.4441
1528.54	69.478
1527.68	75.2549
1526.82	52.0906
1525.95	40.5079
1525.09	75.216
1524.22	75.203
1523.36	72.2982
1522.49	57.8286
1521.63	60.7095
1520.76	83.8225
1519.9	75.1383
1519.03	60.6781
1518.17	63.5566
1517.3	54.8803
1516.44	89.5262
1515.57	89.5107
1514.71	63.5128
1513.84	101.026
1512.97	77.9207
1512.11	92.3345
1511.24	98.0885
1510.37	86.5337
1509.51	57.6792
1508.64	57.6692
1507.77	60.5423
1506.91	63.4143
1506.04	95.105
1505.17	72.0368
1504.3	54.7385
1503.43	89.2948
1502.57	66.2396
1501.7	77.7461
1500.83	106.523
1499.96	74.8408
1499.09	83.4618
1498.22	92.0799
1497.35	80.556
1496.49	71.9126
1495.62	57.5201
1494.75	89.1408
1493.88	94.8755
1493.01	89.11
1492.14	60.3544
1491.27	66.0911
1490.4	83.3178
1489.53	86.176
1488.66	83.289
1487.79	77.5316
1486.92	71.7761
1486.04	74.6342
1485.17	94.7117
1484.3	77.478
1483.43	65.9884
1482.56	63.1084
1481.69	103.25
1480.82	74.5569
1479.94	71.6769
1479.07	63.0648
1478.2	65.92
1477.33	91.6989
1476.45	83.0877
1475.58	68.7504
1474.71	60.1462
1473.84	74.4538
1472.96	68.7147
1472.09	68.7028
1471.22	71.5531
1470.34	74.4023
1469.47	51.5004
1468.59	111.565
1467.72	94.3847
1466.85	71.4912
1465.97	65.7605
1465.1	82.9011
1464.22	71.4541
1463.35	88.5877
1462.47	77.1437
1461.6	74.2736
1460.72	71.4046
1459.85	131.362
1458.97	114.208
1458.1	57.094
1457.22	88.4804
1456.34	79.9039
1455.47	134.101
1454.59	62.7599
1453.71	111.237
1452.84	88.4038
1451.96	88.3885
1451.08	79.8209
1450.21	111.16
1449.33	108.291
1448.45	96.875
1447.58	82.6144
1446.7	91.1449
1445.82	85.4335
1444.94	99.6552
1444.06	91.0975
1443.18	76.8502
1442.31	88.2201
1441.43	73.9782
1440.55	102.414
1439.67	91.0186
1438.79	82.4713
1437.91	93.8304
1437.03	99.4998
1436.15	88.1131
1435.27	76.7303
1434.39	93.7653
1433.51	82.3855
1432.63	107.935
1431.75	65.3175
1430.87	70.985
1429.99	96.5229
1429.11	90.8293
1428.23	90.8135
1427.35	73.7732
1426.47	82.2712
1425.59	107.785
1424.7	87.9145
1423.82	99.2411
1422.94	85.049
1422.06	85.0343
1421.18	82.1855
1420.29	96.3387
1419.41	90.656
1418.53	96.3052
1417.65	96.2885
1416.76	87.7772
1415.88	76.4378
1415	93.4078
1414.11	82.0714
1413.23	101.864
1412.35	82.0429
1411.46	113.143
1410.58	87.6705
1409.7	82.0001
1408.81	90.4671
1407.93	90.4514
1407.04	90.4357
1406.16	110.199
1405.27	70.6283
1404.39	90.3885
1403.5	96.0211
1402.62	79.0625
1401.73	98.8109
1400.85	79.035
1399.96	101.599
1399.07	126.976
1398.19	110.027
1397.3	115.649
1396.41	107.168
1395.53	115.609
1394.64	76.1195
1393.75	73.2875
1392.87	101.457
1391.98	109.893
1391.09	95.7875
1390.2	87.3205
1389.32	101.387
1388.43	112.632
1387.54	126.689
1386.65	118.223
1385.76	84.4301
1384.88	137.879
1383.99	137.855
1383.1	98.4504
1382.21	132.182
1381.32	112.476
1380.43	109.645
1379.54	118.058
1378.65	132.09
1377.76	129.257
1376.87	143.281
1375.98	117.976
1375.09	140.423
1374.2	129.167
1373.31	126.337
1372.42	126.315
1371.53	117.873
1370.64	123.465
1369.75	115.027
1368.86	123.422
1367.97	143.032
1367.07	114.966
1366.18	154.196
1365.29	117.729
1364.4	137.327
1363.51	126.095
1362.61	117.668
1361.72	100.84
1360.83	117.627
1359.94	112.006
1359.04	128.784
1358.15	106.368
1357.26	125.941
1356.36	109.13
1355.47	120.301
1354.58	114.686
1353.68	137.04
1352.79	111.85
1351.89	114.626
1351	120.196
1350.11	120.175
1349.21	108.977
1348.32	97.783
1347.42	128.492
1346.53	111.713
1345.63	117.278
1344.73	108.882
1343.84	117.237
1342.94	131.171
1342.05	145.1
1341.15	114.386
1340.26	105.998
1339.36	117.135
1338.46	119.903
1337.57	142.185
1336.67	103.136
1335.77	111.479
1334.87	122.605
1333.98	117.012
1333.08	116.992
1332.18	116.971
1331.28	94.6744
1330.39	111.362
1329.49	114.126
1328.59	122.455
1327.69	105.739
1326.79	122.413
1325.89	125.173
1325	100.121
1324.1	94.542
1323.2	97.3056
1322.3	125.085
1321.4	97.2715
1320.5	125.042
1319.6	138.911
1318.7	99.9982
1317.8	124.976
1316.9	122.177
1316	108.275
1315.1	74.9462
1314.2	105.461
1313.29	108.218
1312.39	141.491
1311.49	85.989
1310.59	94.294
1309.69	124.779
1308.79	124.757
1307.89	99.7883
1306.98	108.085
1306.08	99.7533
1305.18	110.818
1304.28	119.108
1303.37	116.318
1302.47	107.99
1301.57	127.351
1300.66	110.721
1299.76	152.214
1298.86	110.682
1297.95	124.495
1297.05	121.707
1296.15	132.748
1295.24	118.899
1294.34	129.937
1293.43	135.443
1292.53	132.655
1291.62	154.737
1290.72	149.185
1289.81	179.543
1288.91	179.511
1288	193.286
1287.1	201.534
1286.19	173.896
1285.29	184.905
1284.38	179.354
1283.47	173.805
1282.57	204.116
1281.66	179.259
1280.75	170.956
1279.85	154.385
1278.94	187.434
1278.03	181.89
1277.13	137.771
1276.22	151.521
1275.31	134.968
1274.4	112.913
1273.5	123.907
1272.59	104.614
1271.68	107.348
1270.77	112.833
1269.86	96.3042
1268.95	107.292
1268.04	90.7692
1267.14	90.7533
1266.23	90.7373
1265.32	82.474
1264.41	90.7054
1263.5	87.9413
1262.59	93.4212
1261.68	96.152
1260.77	96.1351
1259.86	101.611
1258.95	76.8811
1258.04	90.5939
1257.13	98.8123
1256.21	82.3291
1255.3	93.2899
1254.39	82.3002
1253.48	71.3143
1252.57	87.756
1251.66	71.2892
1250.75	87.7251
1249.83	98.6734
1248.92	76.7324
1248.01	68.4991
1247.1	68.487
1246.18	76.6919
1245.27	82.1555
1244.36	49.2846
1243.44	84.8641
1242.53	84.8492
1241.62	79.3611
1240.7	71.1388
1239.79	79.3331
1238.88	76.584
1237.96	92.9785
1237.05	60.152
1236.13	62.8751
1235.22	68.3304
1234.3	71.0511
1233.39	76.5031
1232.47	87.4167
1231.56	71.0136
1230.64	81.9243
1229.73	87.3705
1228.81	73.7059
1227.89	49.1286
1226.98	76.4088
1226.06	76.3953
1225.15	46.3747
1224.23	73.641
1223.31	70.901
1222.4	62.7091
1221.48	68.15
1220.56	68.138
1219.64	68.126
1218.73	68.114
1217.81	57.2057
1216.89	65.3664
1215.97	59.9086
1215.05	76.2338
1214.14	62.6096
1213.22	59.8769
1212.3	54.4239
1211.38	70.7386
1210.46	62.5654
1209.54	76.1532
1208.62	54.3855
1207.7	57.0947
1206.78	84.2678
1205.86	57.0746
1204.94	67.9339
1204.02	54.3375
1203.1	54.328
1202.18	57.0343
1201.26	73.3168
1200.34	43.4393
1199.42	70.5765
1198.5	62.422
1197.58	59.6975
1196.66	70.5391
1195.73	59.6764
1194.81	46.1054
1193.89	70.5017
1192.97	54.2225
1192.05	73.1874
1191.12	70.4643
1190.2	56.9034
1189.28	75.8578
1188.35	75.8444
1187.43	62.2898
1186.51	62.2788
1185.59	51.4386
1184.66	59.5499
1183.74	64.9521
1182.81	70.3523
1181.89	70.3399
1180.97	78.4421
1180.04	62.2017
1179.12	73.0065
1178.19	62.1797
1177.27	94.6046
1176.34	83.7778
1175.42	83.763
1174.49	70.2404
1173.57	78.3312
1172.64	67.5149
1171.71	75.6033
1170.79	83.6889
1169.86	83.6741
1168.94	56.6724
1168.01	80.9462
1167.08	67.4433
1166.16	83.6148
1165.23	83.6
1164.3	75.4963
1163.37	102.441
1162.45	53.9069
1161.52	61.9819
1160.59	94.3036
1159.66	86.2051
1158.73	78.1096
1157.81	75.4028
1156.88	80.7744
1155.95	86.1441
1155.02	80.7458
1154.09	86.1135
1153.16	86.0983
1152.23	83.3929
1151.3	67.2404
1150.37	94.1199
1149.44	94.1032
1148.51	77.9574
1147.58	104.821
1146.65	99.4277
1145.72	80.6027
1144.79	94.0198
1143.86	85.9458
1142.93	83.2452
1142	88.6001
1141.07	67.1094
1140.14	59.0458
1139.2	77.8193
1138.27	53.6589
1137.34	85.8391
1136.41	85.8239
1135.48	83.1271
1134.54	96.5176
1133.61	85.7782
1132.68	58.962
1131.75	109.864
1130.81	88.4116
1129.88	72.324
1128.95	85.7021
1128.01	74.976
1127.08	80.3171
1126.14	80.3029
1125.21	72.2598
1124.28	88.3018
1123.34	88.2861
1122.41	72.2213
1121.47	96.2779
1120.54	80.2173
1119.6	74.8562
1118.67	96.2266
1117.73	77.5021
1116.8	96.1924
1115.86	64.1169
1114.92	85.474
1113.99	74.7764
1113.05	85.4436
1112.11	88.098
1111.18	80.0749
1110.24	96.0728
1109.3	74.71
1108.37	77.3644
1107.43	74.6834
1106.49	74.6701
1105.55	85.3221
1104.62	93.3045
1103.68	77.2957
1102.74	82.6117
1101.8	93.2547
1100.86	58.6068
1099.93	82.5676
1098.99	77.2269
1098.05	66.5631
1097.11	77.1994
1096.17	82.5088
1095.23	69.1887
1094.29	58.5338
1093.35	87.7851
1092.41	69.1517
1091.47	69.1394
1090.53	71.7858
1089.59	74.4313
1088.65	55.8135
1087.71	85.034
1086.77	79.7052
1085.83	55.7837
1084.88	69.0532
1083.94	77.0072
1083	63.7187
1082.06	66.3619
1081.12	71.658
1080.18	82.2594
1079.23	61.0203
1078.29	90.1878
1077.35	71.607
1076.41	53.0327
1075.46	79.5349
1074.52	68.918
1073.58	63.6053
1072.63	74.1929
1071.69	52.9855
1070.75	66.2201
1069.8	76.8016
1068.86	71.4921
1067.91	79.4216
1066.97	74.1136
1066.02	58.2217
1065.08	55.5653
1064.13	60.8464
1063.19	74.0607
1062.24	76.692
1061.3	60.8139
1060.35	68.7338
1059.41	84.5804
1058.46	55.496
1057.51	71.3392
1056.57	66.043
1055.62	52.825
1054.67	81.8641
1053.73	73.9286
1052.78	63.356
1051.83	73.9022
1050.89	63.3334
1049.94	71.2374
1048.99	55.3969
1048.04	81.7618
1047.09	58.0142
1046.15	50.0942
1045.2	60.6295
1044.25	47.4407
1043.3	57.9727
1042.35	50.0584
1041.4	63.2204
1040.45	63.2091
1039.5	63.1978
1038.55	76.3503
1037.6	63.1752
1036.66	63.1639
1035.7	60.5212
1034.75	60.5104
1033.8	63.13
1032.85	60.4888
1031.9	60.4779
1030.95	63.0961
1030	55.1992
1029.05	49.9332
1028.1	47.2967
1027.15	60.4239
1026.19	65.6664
1025.24	52.5237
1024.29	57.7657
1023.34	68.2564
1022.39	62.9946
1021.43	65.6076
1020.48	52.4767
1019.53	49.8439
1018.57	62.9495
1017.62	49.8261
1016.67	65.5489
1015.71	52.4297
1014.76	47.1783
1013.81	52.411
1012.85	49.7815
1011.9	52.3922
1010.94	60.2402
1009.99	75.9415
1009.03	47.1276
1008.08	47.1192
1007.12	41.8762
1006.17	36.6351
1005.21	70.6408
1004.26	36.622
1003.3	49.6924
1002.34	52.2984
1001.39	54.9035
1000.43	52.2796
999.476	65.3378
998.519	52.2609
997.562	47.0264
996.605	47.0179
995.648	28.728
994.69	54.8346
993.733	62.6569
992.775	46.9842
991.817	62.6344
990.859	49.5767
989.901	73.0472
988.942	49.5589
987.983	65.1973
987.025	52.1485
986.066	59.96
985.107	39.0973
984.147	65.1505
983.188	39.0833
982.228	59.917
981.268	52.0924
980.308	57.2913
979.348	46.8663
978.388	36.445
977.427	49.4522
976.466	52.0456
975.506	72.8508
974.545	33.8175
973.583	57.2193
972.622	41.6066
971.66	67.5986
970.699	44.1911
969.737	38.9852
968.775	64.9636
967.812	46.7654
966.85	64.9402
965.887	44.1514
964.925	67.5136
963.962	36.3469
962.999	75.2765
962.035	36.3339
961.072	44.1118
960.108	28.5378
959.144	44.0959
958.18	49.2748
957.216	62.2306
956.252	49.2571
955.287	51.8402
954.323	49.2393
953.358	59.5948
952.393	46.631
951.428	51.8029
950.462	46.6142
949.497	46.6058
948.531	62.1299
947.565	44.0008
946.599	46.5807
945.633	54.3343
944.666	54.3246
943.7	59.4876
942.733	49.1331
941.766	49.1242
940.799	46.5304
939.832	62.0293
938.864	41.3454
937.897	54.2561
936.929	56.8295
935.961	46.4885
934.993	56.809
934.024	46.4717
933.056	46.4634
932.087	46.455
931.118	64.5092
930.149	41.2784
929.18	43.8504
928.211	59.3164
927.241	54.1487
926.271	64.4511
925.302	43.8188
924.331	54.1194
923.361	59.2629
922.391	48.9475
921.42	66.9687
920.449	43.7793
919.478	72.0942
918.507	46.3379
917.536	46.3295
916.565	66.9083
915.593	48.8857
914.621	77.1741
913.649	51.4401
912.677	77.1462
911.705	74.5612
910.732	56.5535
909.759	64.2537
908.786	69.3815
907.813	51.3844
906.84	53.9439
905.867	46.2293
904.893	61.6279
903.919	53.9147
902.945	87.2747
901.971	41.063
900.997	64.1494
900.023	56.4413
899.048	84.6466
898.073	61.55
897.098	61.5389
896.123	82.0371
895.148	58.9535
894.172	53.8174
893.196	58.9322
892.221	71.7306
891.244	81.963
890.268	76.8264
889.292	81.9334
888.315	53.759
887.339	56.3088
886.362	58.8577
885.384	76.757
884.407	58.8364
883.43	69.0563
882.452	40.9149
881.474	81.8149
880.496	63.9063
879.518	76.6737
878.54	71.5492
877.561	68.9814
876.583	63.8601
875.604	89.388
874.625	71.4974
873.645	81.6966
872.666	89.3394
871.686	79.1149
870.707	91.8587
869.727	117.354
868.747	94.3762
867.766	96.9093
866.786	91.7922
865.805	101.973
864.824	99.4056
863.843	99.3875
862.862	109.561
861.881	119.731
860.899	106.975
859.917	91.6759
858.936	99.2976
857.953	124.736
856.971	134.894
855.989	150.138
855.006	139.934
854.023	150.083
853.04	116.993
852.057	127.143
851.074	116.95
850.09	132.181
849.107	137.24
848.123	121.969
847.139	116.866
846.155	129.545
845.17	114.284
844.186	126.959
843.201	124.397
842.216	121.836
841.231	119.276
840.246	126.867
839.26	91.3275
838.275	111.602
837.289	109.046
836.303	93.8133
835.317	103.936
834.33	86.1755
833.344	91.2281
832.357	96.2788
831.37	86.1286
830.383	103.842
829.396	119.017
828.408	75.9544
827.421	70.8779
826.433	75.9268
825.445	58.2
824.457	75.8992
823.468	48.0608
822.48	68.2845
821.491	70.8007
820.502	75.8441
819.513	55.6089
818.524	42.9627
817.535	68.2225
816.545	68.2101
815.555	58.0943
814.565	58.0838
813.575	78.2726
812.585	25.2446
811.594	42.9081
810.604	63.0886
809.613	47.9386
808.622	30.2715
807.631	37.8325
806.639	57.9993
805.648	52.9463
804.656	60.499
803.664	45.366
802.672	57.9571
801.68	57.9466
800.687	47.8602
799.694	40.296
798.702	40.2887
797.709	55.3868
796.715	40.274
795.722	42.7833
794.728	45.2918
793.735	57.8623
792.741	37.7294
791.747	27.6632
790.752	35.2013
789.758	42.7366
788.763	52.7827
787.768	55.2861
786.773	37.6882
785.778	62.8022
784.783	50.2326
783.787	47.7123
782.792	50.2143
781.796	40.1641
780.8	55.2156
779.803	50.1869
778.807	57.7044
777.81	47.6601
776.813	37.6196
775.816	57.6728
774.819	60.1694
773.822	40.1056
772.824	67.6658
771.827	67.6535
770.829	55.115
769.831	25.0477
768.832	60.1035
767.834	47.5733
766.835	52.5714
765.836	45.053
764.837	65.0647
763.838	57.5467
762.839	57.5362
761.839	50.0224
760.84	70.0185
759.84	22.5018
758.84	54.9945
757.839	47.4866
756.839	54.9744
755.838	49.9676
754.837	52.4564
753.836	57.4418
752.835	42.4492
751.834	57.4208
750.832	57.4103
749.83	72.3737
748.828	39.923
747.826	24.9473
746.824	57.3684
745.822	44.8888
744.819	52.3607
743.816	67.3085
742.813	59.8189
741.81	59.808
740.806	47.3393
739.803	47.3307
738.799	52.3033
737.795	69.7249
736.791	47.3047
735.787	47.2961
734.782	54.7538
733.778	74.6507
732.773	62.1975
731.768	74.6234
730.762	42.2788
729.757	74.5961
728.751	57.1799
727.746	62.1407
726.74	49.7034
725.733	42.2402
724.727	52.1695
723.721	62.0952
722.714	42.217
721.707	59.5896
720.7	62.0611
719.693	67.0137
718.685	47.1492
717.678	59.5459
716.67	59.535
715.662	44.6431
714.654	52.0741
713.645	49.5853
712.637	49.5762
711.628	76.829
710.619	71.8591
709.61	81.7558
708.601	47.0629
707.591	64.39
706.582	66.8543
705.572	79.2202
704.562	64.3546
703.551	66.8176
702.541	56.9082
701.531	51.9502
700.52	76.6743
699.509	61.8228
698.498	76.6462
697.486	59.3281
696.475	46.9595
695.463	79.0751
694.451	84.0019
693.439	64.225
692.427	64.2132
691.414	74.0786
690.402	66.6585
689.389	74.0514
688.376	103.653
687.363	78.9592
686.349	78.9447
685.336	71.5305
684.322	93.7124
683.308	83.8325
682.294	56.6998
681.28	86.2665
680.265	73.9292
679.251	91.1625
678.236	88.6824
677.221	83.7402
676.206	81.2624
675.19	66.4752
674.175	81.2325
673.159	78.7564
672.143	68.8992
671.127	76.2673
670.11	73.7935
669.094	61.4833
668.077	88.5196
667.06	49.1685
666.043	56.5334
665.026	83.5558
664.008	73.7121
662.991	78.6118
661.973	46.6672
660.955	66.3044
659.936	71.2027
658.918	58.9155
657.899	76.0852
656.881	56.44
655.862	76.0572
654.843	73.5903
653.823	58.8614
652.804	41.6858
651.784	66.1947
650.764	71.0849
649.744	75.9733
648.724	83.3103
647.703	63.6961
646.683	66.1338
645.662	71.0195
644.641	68.558
643.619	70.9934
642.598	66.0851
641.576	83.203
640.555	88.081
639.533	73.3874
638.511	58.6991
637.488	90.4777
636.466	83.1264
635.443	73.3333
634.42	85.5398
633.397	95.2982
632.374	90.3944
631.35	80.6072
630.326	87.9189
629.303	83.0192
628.279	80.5626
627.254	75.6661
626.23	92.7349
625.205	87.8379
624.18	78.0638
623.155	80.4884
622.13	90.228
621.105	87.7732
620.079	78.0062
619.054	104.802
618.028	82.851
617.002	90.1448
615.975	85.2564
614.949	63.3216
613.922	80.3549
612.895	68.1674
611.868	77.8912
610.841	77.8768
609.813	97.328
608.786	70.5498
607.758	92.4275
606.73	65.6601
605.702	89.962
604.673	85.0835
603.645	68.0542
602.616	85.052
601.587	97.1844
600.558	77.7332
599.528	68.0039
598.499	77.7044
597.469	101.968
596.439	84.9578
595.409	77.6614
594.379	70.3676
593.348	70.3546
592.318	58.2138
591.287	92.1548
590.256	55.7676
589.224	67.8784
588.193	77.561
587.161	87.24
586.129	84.801
585.097	75.0955
584.065	72.6597
583.033	65.3816
582	72.6328
580.967	72.6194
579.935	79.8665
578.901	67.753
577.868	74.9984
576.834	99.1731
575.801	74.9706
574.767	72.5388
573.733	94.283
572.698	84.5973
571.664	60.4154
570.629	89.3983
569.594	94.2132
568.559	96.611
567.524	99.008
566.488	86.9178
565.453	91.7295
564.417	82.0586
563.381	82.0434
562.345	98.9164
561.308	77.1887
560.272	89.2329
559.235	81.9826
558.198	65.0918
557.161	89.1833
556.123	74.7073
555.086	74.6935
554.048	93.9518
553.01	72.2572
551.972	84.2845
550.933	84.2689
549.895	79.4388
548.856	60.1697
547.817	89.0347
546.778	89.0182
545.739	89.0017
544.699	64.9351
543.66	81.755
542.62	62.5069
541.58	84.1284
540.539	62.4838
539.499	86.4999
538.458	76.8746
537.417	79.2622
536.376	91.2547
535.335	64.8268
534.294	69.6159
533.252	72.0031
532.21	76.789
531.168	69.5771
530.126	71.963
529.084	76.7463
528.041	71.9363
526.998	62.3332
525.955	76.7035
524.912	76.6893
523.869	83.8633
522.825	59.8912
521.782	83.8322
520.738	62.2638
519.693	55.0692
518.649	86.1793
517.605	76.5896
516.56	71.7894
515.515	52.6358
514.47	83.7232
513.425	95.6659
512.379	78.9097
511.333	59.7689
510.287	71.7094
509.241	59.7467
508.195	59.7356
507.149	64.5025
506.102	78.8217
505.055	74.0308
504.008	45.3653
502.961	64.4545
501.913	81.1498
500.866	57.2716
499.818	45.3316
498.77	69.1774
497.722	73.9345
496.673	88.228
495.625	78.6752
494.576	57.2077
493.527	73.8795
492.478	83.3968
491.428	76.2343
490.379	69.0745
489.329	45.2473
488.279	69.0488
487.229	69.0359
486.178	52.3623
485.128	69.0102
484.077	73.7558
483.026	64.2269
481.975	76.1066
480.923	73.7146
479.872	54.6813
478.82	66.5561
477.768	76.0499
476.716	83.1641
475.664	68.8946
474.611	66.5065
473.558	83.1176
472.506	83.1021
471.452	61.7215
470.399	54.5896
469.346	59.3255
468.292	85.4127
467.238	66.4197
466.184	66.4073
465.13	54.5387
464.075	68.7534
463.02	78.222
461.966	80.5773
460.91	75.8234
459.855	68.7021
458.8	71.0579
457.744	63.9401
456.688	78.1345
455.632	59.1817
454.576	85.2058
453.519	70.9916
452.463	66.2464
451.406	80.4271
450.349	66.2217
449.292	82.7617
448.234	75.6537
447.176	75.6396
446.119	87.4419
445.061	101.603
444.002	80.322
442.944	87.3929
441.885	89.7381
440.826	82.6381
439.767	92.0652
438.708	92.048
437.649	75.5125
436.589	84.9357
435.529	87.2787
434.469	77.8286
433.409	80.172
432.349	94.3024
431.288	80.1421
430.227	80.1271
429.166	82.4683
428.105	80.0971
427.044	65.95
425.982	96.5516
424.92	77.6977
423.858	84.7453
422.796	82.3758
421.734	101.186
420.671	84.6977
419.608	87.0341
418.545	79.9623
417.482	75.2446
416.419	75.2305
415.355	96.3711
414.291	86.9527
413.227	77.5379
412.163	96.3169
411.099	70.4626
410.034	93.9326
408.969	86.8713
407.904	100.94
406.839	77.4508
405.774	63.357
404.708	93.8446
403.642	100.864
402.576	103.19
401.51	110.205
400.444	117.218
399.377	89.0689
398.31	74.9913
397.243	60.919
396.176	100.732
395.109	91.3443
394.041	81.9603
392.973	95.9926
391.905	81.9295
390.837	95.9566
389.769	79.5589
388.7	88.902
387.631	70.1727
386.562	102.901
385.493	93.5285
384.424	93.5109
383.354	84.144
382.284	98.1496
381.214	88.7854
380.144	84.0967
379.074	84.0809
378.003	91.0705
376.932	86.384
375.861	91.0363
374.79	79.3501
373.719	65.3349
372.647	76.9874
371.575	72.3079
370.503	72.2943
369.431	83.9389
368.359	88.5855
367.286	72.2536
366.213	74.5703
365.14	69.8965
364.067	72.2129
362.994	88.5024
361.92	86.1572
360.846	90.7972
359.772	62.8478
358.698	58.1815
357.624	76.7851
356.549	86.0762
355.474	93.0379
354.399	88.3694
353.324	99.9781
352.248	86.0115
351.173	85.9953
350.097	81.3316
349.021	78.993
347.945	76.6553
346.868	95.2204
345.791	90.5585
344.715	83.5767
343.638	78.9187
342.56	83.5453
341.483	83.5296
340.405	104.392
339.327	88.1369
338.249	71.8876
337.171	113.607
336.092	83.451
335.014	88.0706
333.935	88.054
332.856	94.9877
331.777	71.8065
330.697	97.2678
329.617	92.6186
328.537	90.2861
327.457	81.0107
326.377	85.6238
325.297	99.49
324.216	99.4712
323.135	94.8268
322.054	104.059
320.972	99.415
319.891	83.2155
318.809	78.5776
317.727	117.844
316.645	92.4094
315.563	80.843
314.48	94.6839
313.397	94.666
312.315	92.3397
311.231	99.2464
310.148	96.9201
309.064	87.6731
307.981	115.338
306.897	99.1716
305.812	106.071
304.728	99.1342
303.643	69.1503
302.559	129.056
301.474	73.7325
300.388	89.8445
299.303	99.0406
298.217	78.2964
297.132	101.306
296.046	98.9846
294.959	103.569
293.873	105.85
292.786	87.4252
291.699	98.9098
290.612	87.3922
289.525	80.4776
288.438	117.245
287.35	94.2381
286.262	112.605
285.174	89.6073
284.086	91.8875
282.997	105.651
281.909	107.927
280.82	114.794
279.731	82.6363
278.641	91.8007
277.552	114.729
276.462	98.6484
275.372	98.6298
274.282	103.198
273.192	91.7139
272.101	130.668
271.01	107.723
269.919	96.245
268.828	109.973
267.737	109.953
266.645	114.512
265.553	130.519
264.461	103.022
263.369	98.4247
262.277	98.4061
261.184	102.964
260.091	116.67
258.998	105.212
257.905	102.905
256.812	132.608
255.718	116.582
254.624	123.416
253.53	123.393
252.436	111.946
251.341	125.63
250.247	127.89
249.152	134.716
248.057	136.973
246.961	134.665
245.866	123.229
244.77	132.332
243.674	130.026
242.578	139.124
241.482	129.977
240.385	120.833
239.288	132.207
238.191	139.019
237.094	129.878
235.997	141.244
234.899	127.551
233.801	173.072
232.703	154.825
231.605	163.901
230.507	154.766
229.408	141.083
228.309	154.707
227.21	179.699
226.111	138.729
225.011	161.441
223.912	156.863
222.812	170.471
221.712	149.986
220.611	186.311
219.511	147.658
218.41	158.986
217.309	147.602
216.208	170.277
215.107	158.895
214.005	181.56
212.903	170.18
211.801	154.267
210.699	151.97
209.597	158.744
208.494	163.249
207.391	172.285
206.288	194.918
205.185	179.018
204.082	190.312
202.978	188.011
201.874	158.533
200.77	185.675
199.666	176.584
198.561	162.97
197.456	171.991
196.352	144.807
195.246	158.352
194.141	167.369
193.036	160.554
191.93	185.393
190.824	169.534
189.718	167.242
188.611	158.172
187.505	144.587
186.398	144.559
185.291	155.823
184.184	153.536
183.076	153.506
181.968	162.505
180.861	173.757
179.752	171.468
178.644	146.622
177.536	164.637
176.427	166.86
175.318	137.521
174.209	162.289
173.1	150.99
171.99	159.974
170.88	148.68
169.77	180.183
168.66	146.371
167.55	150.846
166.439	162.072
165.328	164.292
164.217	157.51
163.106	148.481
161.994	159.7
160.883	177.66
159.771	197.862
158.659	177.592
157.547	175.311
156.434	164.042
155.321	168.504
154.208	190.935
153.095	166.194
151.982	168.407
150.868	202.05
149.754	217.724
148.64	186.264
147.526	204.178
146.412	204.14
145.297	206.343
144.182	219.759
143.067	199.539
141.952	224.158
140.836	228.597
139.721	237.517
138.605	250.913
137.489	248.625
136.372	279.93
135.256	244.052
134.139	255.199
133.022	275.293
131.905	273.003
130.787	275.188
129.67	275.135
128.552	297.447
127.434	326.459
126.316	297.334
125.197	295.042
124.078	332.976
122.959	328.444
121.84	339.55
120.721	377.454
119.601	363.984
118.482	397.403
117.362	354.916
116.241	386.092
115.121	423.951
114	428.332
112.88	388.101
111.758	408.097
110.637	441.463
109.516	452.525
108.394	470.268
107.272	412.242
106.15	445.581
105.028	461.089
103.905	420.913
102.782	391.887
101.659	445.24
100.536	438.478
