3201.19	50.5345
3200.6	4.21121
3200	25.2635
3199.41	29.4696
3198.82	21.0465
3198.22	25.252
3197.63	46.2884
3197.03	8.41479
3196.44	8.41352
3195.85	21.0306
3195.25	12.6165
3194.66	16.8194
3194.06	42.0422
3193.47	25.2215
3192.87	37.8265
3192.28	29.4162
3191.68	42.0168
3191.09	21.0052
3190.49	29.4029
3189.9	16.7991
3189.3	12.5974
3188.71	25.191
3188.11	29.3851
3187.52	20.9862
3186.92	41.966
3186.32	4.19597
3185.73	25.172
3185.13	16.7788
3184.54	-4.19406
3183.94	16.7737
3183.34	50.3135
3182.75	29.3451
3182.15	20.9576
3181.55	25.1453
3180.96	41.9026
3180.36	16.7585
3179.76	16.756
3179.17	12.5651
3178.57	25.1263
3177.97	41.8709
3177.38	37.6781
3176.78	12.5575
3176.18	20.9259
3175.58	16.7382
3174.99	33.4714
3174.39	37.6496
3173.79	29.2786
3173.19	41.8202
3172.6	16.7256
3172	41.8076
3171.4	20.9006
3170.8	33.4359
3170.2	12.5366
3169.6	25.0694
3169.01	33.4207
3168.41	8.35392
3167.81	25.058
3167.21	25.0542
3166.61	4.17506
3166.01	58.442
3165.41	20.869
3164.81	20.8658
3164.22	12.5176
3163.62	54.2347
3163.02	29.1989
3162.42	58.389
3161.82	12.51
3161.22	8.33875
3160.62	0
3160.02	16.6725
3159.42	45.8423
3158.82	37.5016
3158.22	45.8284
3157.62	29.1591
3157.02	37.4846
3156.42	45.8076
3155.82	20.8185
3155.22	8.32612
3154.62	29.137
3154.02	33.2944
3153.42	20.8058
3152.81	24.9632
3152.21	24.9594
3151.61	16.6371
3151.01	24.9519
3150.41	24.9481
3149.81	54.046
3149.21	45.7243
3148.61	24.9368
3148	20.7775
3147.4	29.0841
3146.8	0
3146.2	37.3824
3145.6	24.9178
3144.99	41.5234
3144.39	20.7586
3143.79	33.2087
3143.19	24.9027
3142.59	29.0488
3141.98	37.3428
3141.38	4.14857
3140.78	24.8876
3140.17	29.0312
3139.57	29.0267
3138.97	41.4605
3138.37	0
3137.76	53.8823
3137.16	12.4325
3136.56	16.5741
3135.95	33.1432
3135.35	41.4227
3134.75	33.1332
3134.14	8.28203
3133.54	28.9827
3132.93	33.1181
3132.33	24.8348
3131.73	20.6925
3131.12	20.6894
3130.52	28.9607
3129.91	28.9563
3129.31	41.3599
3128.7	12.4061
3128.1	45.4821
3127.49	45.4752
3126.89	-4.13348
3126.28	8.2657
3125.68	16.5289
3125.07	37.1843
3124.47	16.5239
3123.86	24.782
3123.26	0
3122.65	24.7745
3122.05	33.0276
3121.44	24.767
3120.84	16.5088
3120.23	28.886
3119.62	16.5038
3119.02	16.5013
3118.41	8.24938
3117.81	28.8685
3117.2	37.1109
3116.59	0
3115.99	12.3666
3115.38	37.094
3114.77	12.3628
3114.17	28.8421
3113.56	12.359
3112.95	32.9524
3112.35	41.1843
3111.74	28.8246
3111.13	20.5859
3110.53	32.9324
3109.92	45.2751
3109.31	41.1529
3108.7	57.6054
3108.09	28.7983
3107.49	32.9073
3106.88	41.1279
3106.27	49.346
3105.66	16.4462
3105.06	32.8873
3104.45	0
3103.84	20.5483
3103.23	20.5452
3102.62	36.9757
3102.01	8.21557
3101.4	24.643
3100.8	20.5327
3100.19	36.9532
3099.58	32.8423
3098.97	41.0466
3098.36	0
3097.75	53.3443
3097.14	20.5139
3096.53	16.4086
3095.92	45.1169
3095.31	49.211
3094.7	24.6017
3094.09	8.19933
3093.48	16.3962
3092.87	24.5905
3092.26	45.0757
3091.65	20.4858
3091.04	16.3862
3090.43	24.5755
3089.82	49.1435
3089.21	0
3088.6	32.7524
3087.99	16.3737
3087.38	12.2784
3086.77	36.8296
3086.16	45.0071
3085.55	45.0002
3084.93	16.3612
3084.32	20.4484
3083.71	32.7125
3083.1	28.619
3082.49	36.7903
3081.88	36.7847
3081.27	28.606
3080.65	16.3438
3080.04	44.9385
3079.43	28.5929
3078.82	20.4204
3078.21	20.4173
3077.59	32.6626
3076.98	16.3288
3076.37	20.4079
3075.76	36.7286
3075.14	24.482
3074.53	4.07972
3073.92	20.3955
3073.3	48.9417
3072.69	53.012
3072.08	28.5406
3071.46	28.5362
3070.85	24.4559
3070.24	48.9043
3069.62	44.8221
3069.01	48.8894
3068.4	44.8085
3067.78	12.2186
3067.17	40.7225
3066.56	24.4298
3065.94	20.355
3065.33	28.4927
3064.71	40.6977
3064.1	36.6223
3063.48	36.6167
3062.87	48.8148
3062.25	36.6055
3061.64	24.4
3061.02	28.4623
3060.41	44.7196
3059.79	32.5184
3059.18	28.4492
3058.56	36.572
3057.95	56.8811
3057.33	20.3116
3056.72	52.802
3056.1	20.3054
3055.49	36.5441
3054.87	36.5385
3054.26	32.4737
3053.64	40.5859
3053.02	40.5797
3052.41	32.4588
3051.79	44.6241
3051.17	36.505
3050.56	24.333
3049.94	48.6585
3049.32	36.4883
3048.71	60.8045
3048.09	28.3711
3047.47	20.262
3046.86	32.4142
3046.24	32.4093
3045.62	40.5054
3045.01	36.4493
3044.39	40.493
3043.77	48.5842
3043.15	40.4806
3042.54	48.5693
3041.92	52.6087
3041.3	52.6007
3040.68	48.547
3040.06	32.3597
3039.45	56.6209
3038.83	40.4373
3038.21	16.1724
3037.59	32.3399
3036.97	48.5025
3036.35	36.3713
3035.73	48.4877
3035.12	16.1601
3034.5	40.394
3033.88	36.3491
3033.26	36.3435
3032.64	32.3004
3032.02	60.5539
3031.4	48.4357
3030.78	36.3212
3030.16	64.5612
3029.54	40.3446
3028.92	36.3046
3028.3	36.299
3027.68	44.3587
3027.06	36.2879
3026.44	36.2823
3025.82	44.3383
3025.2	44.3315
3024.58	40.2952
3023.96	48.3468
3023.34	56.396
3022.72	32.2214
3022.1	36.2435
3021.48	56.3701
3020.86	28.1807
3020.24	68.4284
3019.62	24.1475
3018.99	44.2637
3018.37	36.2102
3017.75	48.2728
3017.13	20.1106
3016.51	44.2365
3015.89	36.188
3015.26	20.1014
3014.64	4.01965
3014.02	28.1333
3013.4	24.1105
3012.78	16.0712
3012.15	4.01719
3011.53	20.0829
3010.91	36.1436
3010.29	28.1074
3009.66	12.0442
3009.04	48.1694
3008.42	24.081
3007.79	44.1417
3007.17	40.1227
3006.55	28.0816
3005.92	40.1104
3005.3	36.0938
3004.68	56.1373
3004.05	56.1287
3003.43	48.1029
3002.81	16.0318
3002.18	44.0808
3001.56	60.101
3000.94	68.104
3000.31	48.066
2999.69	36.044
2999.06	48.0513
2998.44	64.0585
2997.81	52.0396
2997.19	44.0267
2996.56	40.0182
2995.94	24.0072
2995.31	40.0059
2994.69	47.9997
2994.06	43.993
2993.44	43.9862
2992.81	43.9794
2992.19	23.9851
2991.56	43.9659
2990.94	27.974
2990.31	27.9697
2989.69	55.9309
2989.06	15.9778
2988.43	39.9384
2987.81	67.8848
2987.18	39.9261
2986.56	23.952
2985.93	39.9138
2985.3	35.9169
2984.68	23.9409
2984.05	71.8118
2983.42	47.8672
2982.8	47.8598
2982.17	39.8771
2981.54	47.8451
2980.92	23.9189
2980.29	55.8022
2979.66	47.8231
2979.03	71.7236
2978.41	39.8403
2977.78	31.8673
2977.15	67.7077
2976.52	23.8932
2975.89	15.9263
2975.27	19.9048
2974.64	47.7643
2974.01	35.8177
2973.38	55.7079
2972.75	47.7423
2972.13	55.6907
2971.5	47.7276
2970.87	47.7202
2970.24	47.7129
2969.61	47.7056
2968.98	63.5976
2968.35	51.6651
2967.72	71.5253
2967.09	55.6223
2966.46	35.7517
2965.84	47.6616
2965.21	71.4813
2964.58	47.6469
2963.95	43.6696
2963.32	55.5709
2962.69	27.7812
2962.06	67.4582
2961.43	47.6102
2960.8	31.7353
2960.17	67.4271
2959.54	67.4167
2958.91	67.4063
2958.27	27.7513
2957.64	31.7109
2957.01	31.706
2956.38	63.4022
2955.75	51.5064
2955.12	59.4213
2954.49	55.4513
2953.86	55.4428
2953.23	31.6767
2952.59	35.6308
2951.96	79.1674
2951.33	59.3664
2950.7	55.4001
2950.07	39.5654
2949.44	43.5152
2948.8	63.2851
2948.17	47.4565
2947.54	55.3574
2946.91	43.4884
2946.27	59.2933
2945.64	47.4273
2945.01	63.2266
2944.38	51.3637
2943.74	63.2072
2943.11	39.4984
2942.48	75.0354
2941.84	43.4348
2941.21	51.3242
2940.58	47.3688
2939.94	63.1487
2939.31	59.1928
2938.68	35.5102
2938.04	27.6148
2937.41	39.4436
2936.78	67.0438
2936.14	51.2609
2935.51	47.3105
2934.87	39.4193
2934.24	51.2372
2933.61	55.17
2932.97	47.2813
2932.34	43.3345
2931.7	63.0223
2931.07	51.1977
2930.43	63.0028
2929.8	62.9931
2929.16	51.174
2928.53	11.8076
2927.89	66.8992
2927.26	74.7581
2926.62	59.0105
2925.98	47.2011
2925.35	55.0594
2924.71	47.1865
2924.08	35.3844
2923.44	51.103
2922.81	23.5823
2922.17	62.8765
2921.53	31.4334
2920.9	51.0714
2920.26	70.7033
2919.62	23.5641
2918.99	39.2675
2918.35	51.0399
2917.71	47.1065
2917.08	70.6488
2916.44	54.9406
2915.8	74.5507
2915.16	70.616
2914.53	62.7601
2913.89	54.9066
2913.25	47.0555
2912.61	50.969
2911.98	39.2008
2911.34	58.7922
2910.7	78.3775
2910.06	86.2019
2909.43	62.6826
2908.79	78.3411
2908.15	82.2455
2907.51	43.0743
2906.87	58.7286
2906.23	70.4634
2905.59	46.9684
2904.96	58.7014
2904.32	78.2564
2903.68	62.5954
2903.04	54.7625
2902.4	58.6651
2901.76	46.9248
2901.12	82.1057
2900.48	66.4563
2899.84	54.7202
2899.2	54.7118
2898.56	42.9812
2897.92	62.5084
2897.28	62.4987
2896.64	62.489
2896	54.6695
2895.36	50.7566
2894.72	58.5563
2894.08	58.5472
2893.44	50.7331
2892.8	46.8233
2892.16	58.5201
2891.52	46.8088
2890.88	58.502
2890.24	81.8901
2889.59	50.686
2888.95	58.4748
2888.31	50.6703
2887.67	42.8682
2887.03	62.3442
2886.39	66.2304
2885.74	58.4296
2885.1	38.947
2884.46	73.9878
2883.82	50.6154
2883.18	58.3934
2882.53	70.0612
2881.89	54.4836
2881.25	54.4752
2880.61	54.4667
2879.96	70.0178
2879.32	42.782
2878.68	62.2188
2878.04	73.8733
2877.39	66.087
2876.75	66.0767
2876.11	69.9527
2875.46	58.2849
2874.82	77.7012
2874.18	62.1513
2873.53	27.187
2872.89	58.2488
2872.24	62.1224
2871.6	38.8205
2870.96	58.2217
2870.31	81.4978
2869.67	46.5629
2869.02	54.315
2868.38	62.0647
2867.73	34.906
2867.09	81.4346
2866.44	58.1586
2865.8	65.9028
2865.15	104.653
2864.51	112.388
2863.86	100.746
2863.22	112.353
2862.57	135.577
2861.93	131.683
2861.28	65.8313
2860.64	89.0521
2859.99	77.4246
2859.35	69.6713
2858.7	65.7905
2858.05	96.7357
2857.41	61.9012
2856.76	50.2869
2856.11	100.558
2855.47	112.144
2854.82	69.5957
2854.17	69.5849
2853.53	65.7088
2852.88	69.5633
2852.23	50.2323
2851.59	65.6782
2850.94	65.6681
2850.29	96.5557
2849.64	65.6477
2849	81.0816
2848.35	88.7898
2847.7	65.6171
2847.05	54.0292
2846.41	69.4553
2845.76	61.7285
2845.11	77.1486
2844.46	69.423
2843.81	77.1247
2843.17	69.4014
2842.52	80.9557
2841.87	69.3799
2841.22	77.0768
2840.57	46.2389
2839.92	73.2002
2839.27	84.7449
2838.62	100.138
2837.97	46.2101
2837.33	50.0532
2836.68	53.8951
2836.03	88.5281
2835.38	76.969
2834.73	92.3485
2834.08	80.7923
2833.43	76.9331
2832.78	80.7672
2832.13	65.3728
2831.48	76.8973
2830.83	76.8853
2830.18	42.2803
2829.53	73.0183
2828.87	88.3768
2828.22	76.8375
2827.57	88.3494
2826.92	99.8577
2826.27	65.2814
2825.62	88.3081
2824.97	57.5833
2824.32	65.2509
2823.67	99.78
2823.01	61.3935
2822.36	72.8935
2821.71	92.0616
2821.06	95.8826
2820.41	80.5289
2819.76	76.6822
2819.1	103.505
2818.45	68.9925
2817.8	111.137
2817.15	95.7931
2816.49	61.298
2815.84	61.2885
2815.19	72.7688
2814.54	72.7574
2813.88	88.0611
2813.23	57.4222
2812.58	110.999
2811.92	80.366
2811.27	80.3535
2810.62	72.6895
2809.96	95.6292
2809.31	84.1406
2808.66	72.6555
2808	118.525
2807.35	64.9873
2806.69	84.0881
2806.04	91.7182
2805.38	87.8829
2804.73	72.5876
2804.08	68.7565
2803.42	95.4803
2802.77	99.284
2802.11	76.3604
2801.46	83.9834
2800.8	61.0693
2800.15	83.9572
2799.49	76.3128
2798.84	61.0407
2798.18	83.9179
2797.53	110.602
2796.87	53.3857
2796.21	72.4407
2795.56	83.8656
2794.9	99.0985
2794.25	95.2721
2793.59	87.6367
2792.93	87.623
2792.28	57.1365
2791.62	68.5531
2790.96	76.1583
2790.31	68.5318
2789.65	87.5547
2788.99	83.7349
2788.34	98.944
2787.68	68.489
2787.02	87.5001
2786.37	64.6639
2785.71	95.0791
2785.05	114.077
2784.39	102.653
2783.74	91.2332
2783.08	64.6134
2782.42	98.8051
2781.76	94.9901
2781.1	64.5832
2780.45	75.9684
2779.79	98.7434
2779.13	68.3502
2778.47	79.7294
2777.81	75.9209
2777.15	72.1136
2776.5	56.9229
2775.84	83.4739
2775.18	113.81
2774.52	75.8617
2773.86	72.0573
2773.2	79.6299
2772.54	72.0348
2771.88	60.6514
2771.22	90.9629
2770.56	53.0534
2769.9	94.7234
2769.24	109.862
2768.58	75.7551
2767.92	75.7432
2767.26	71.9448
2766.6	90.8635
2765.94	68.1369
2765.28	79.4807
2764.62	98.3893
2763.96	87.0231
2763.3	87.0094
2762.64	94.5607
2761.98	94.5459
2761.31	79.4062
2760.65	75.6131
2759.99	105.842
2759.33	83.1484
2758.67	71.7987
2758.01	75.5658
2757.35	52.8878
2756.68	94.4277
2756.02	98.1895
2755.36	143.485
2754.7	86.8327
2754.04	132.116
2753.37	113.225
2752.71	94.3391
2752.05	101.87
2751.39	116.944
2750.72	113.154
2750.06	113.136
2749.4	67.871
2748.73	79.1705
2748.07	109.314
2747.41	75.3769
2746.74	101.743
2746.08	97.9592
2745.42	48.972
2744.75	79.0962
2744.09	56.4884
2743.42	97.8979
2742.76	79.059
2742.1	116.688
2741.43	109.143
2740.77	86.5478
2740.1	101.584
2739.44	97.806
2738.77	86.5071
2738.11	112.818
2737.44	101.52
2736.78	109.023
2736.11	105.247
2735.45	67.6482
2734.78	90.1835
2734.12	90.1693
2733.45	105.181
2732.79	105.165
2732.12	105.148
2731.46	123.905
2730.79	127.64
2730.12	90.0846
2729.46	90.0705
2728.79	127.58
2728.12	86.2905
2727.46	97.5305
2726.79	97.5152
2726.12	97.4999
2725.46	119.981
2724.79	71.2276
2724.12	127.44
2723.46	112.429
2722.79	108.665
2722.12	74.9294
2721.46	119.868
2720.79	116.104
2720.12	93.6176
2719.45	101.091
2718.78	108.562
2718.12	127.26
2717.45	89.8166
2716.78	123.478
2716.11	93.5296
2715.44	130.921
2714.78	78.5402
2714.11	108.443
2713.44	85.9932
2712.77	85.9797
2712.1	89.7039
2711.43	115.849
2710.76	119.568
2710.09	100.869
2709.42	134.471
2708.75	119.511
2708.09	123.227
2707.42	119.474
2706.75	97.0572
2706.08	111.971
2705.41	89.5631
2704.74	126.861
2704.07	141.764
2703.4	115.631
2702.73	119.342
2702.06	115.595
2701.38	96.9353
2700.71	96.9201
2700.04	96.9049
2699.37	89.4366
2698.7	111.778
2698.03	81.9578
2697.36	115.468
2696.69	100.553
2696.02	126.602
2695.34	70.7372
2694.67	111.673
2694	74.4368
2693.33	137.686
2692.66	126.503
2691.99	93.0022
2691.31	104.146
2690.64	119.005
2689.97	89.24
2689.3	107.815
2688.62	115.232
2687.95	115.214
2687.28	100.332
2686.61	100.316
2685.93	133.734
2685.26	111.427
2684.59	118.837
2683.91	126.244
2683.24	107.662
2682.57	92.7976
2681.89	107.628
2681.22	107.611
2680.55	96.464
2679.87	96.4488
2679.2	133.523
2678.52	114.96
2677.85	129.774
2677.17	129.753
2676.5	100.08
2675.83	114.888
2675.15	103.754
2674.48	107.442
2673.8	129.651
2673.13	100.001
2672.45	103.688
2671.78	81.4565
2671.1	81.4437
2670.42	92.535
2669.75	118.426
2669.07	85.1054
2668.4	77.6927
2667.72	125.768
2667.05	136.844
2666.37	103.541
2665.69	144.196
2665.02	121.992
2664.34	144.15
2663.66	144.127
2662.99	129.325
2662.31	118.221
2661.63	144.059
2660.96	88.6379
2660.28	96.0093
2659.6	110.762
2658.93	136.585
2658.25	92.273
2657.57	114.4
2656.89	147.59
2656.22	140.189
2655.54	106.969
2654.86	110.64
2654.18	117.998
2653.5	125.353
2652.83	136.392
2652.15	140.056
2651.47	136.349
2650.79	143.696
2650.11	136.306
2649.43	128.918
2648.76	121.532
2648.08	125.195
2647.4	143.583
2646.72	139.879
2646.04	128.816
2645.36	136.155
2644.68	117.737
2644	125.076
2643.32	154.482
2642.64	132.392
2641.96	117.663
2641.28	136.026
2640.6	158.06
2639.92	154.36
2639.24	124.938
2638.56	165.333
2637.88	106.531
2637.2	117.533
2636.52	135.876
2635.84	121.168
2635.16	113.806
2634.47	146.824
2633.79	124.78
2633.11	139.438
2632.43	135.747
2631.75	124.721
2631.07	139.372
2630.39	139.35
2629.7	161.327
2629.02	109.979
2628.34	142.95
2627.66	109.944
2626.98	142.904
2626.29	109.909
2625.61	98.9026
2624.93	128.187
2624.25	150.138
2623.56	146.453
2622.88	161.073
2622.2	157.387
2621.51	164.681
2620.83	139.042
2620.15	142.679
2619.46	113.393
2618.78	153.605
2618.1	124.328
2617.41	109.683
2616.73	116.977
2616.04	131.579
2615.36	120.595
2614.68	124.229
2613.99	149.782
2613.31	138.801
2612.62	124.17
2611.94	135.105
2611.25	138.735
2610.57	120.461
2609.88	127.742
2609.2	135.02
2608.51	116.755
2607.83	164.161
2607.14	105.776
2606.46	142.228
2605.77	105.743
2605.09	153.12
2604.4	120.29
2603.71	109.337
2603.03	138.471
2602.34	138.45
2601.66	138.428
2600.97	134.763
2600.28	116.534
2599.6	171.132
2598.91	131.059
2598.22	109.198
2597.54	156.493
2596.85	152.829
2596.16	127.338
2595.47	160.056
2594.79	134.571
2594.1	127.277
2593.41	123.621
2592.72	141.778
2592.04	127.217
2591.35	119.928
2590.66	127.176
2589.97	123.523
2589.28	156.196
2588.6	156.171
2587.91	152.515
2587.22	130.706
2586.53	145.206
2585.84	130.665
2585.15	148.789
2584.46	148.766
2583.77	148.742
2583.09	141.464
2582.4	123.308
2581.71	166.802
2581.02	134.145
2580.33	141.374
2579.64	123.23
2578.95	170.32
2578.26	137.684
2577.57	152.152
2576.88	137.64
2576.19	133.997
2575.5	133.975
2574.81	148.436
2574.12	162.891
2573.42	162.865
2572.73	162.84
2572.04	151.959
2571.35	144.7
2570.66	141.06
2569.97	148.271
2569.28	137.4
2568.59	137.378
2567.89	180.732
2567.2	180.703
2566.51	148.153
2565.82	144.517
2565.13	148.106
2564.43	151.694
2563.74	158.893
2563.05	151.646
2562.36	144.402
2561.66	162.426
2560.97	129.92
2560.28	165.983
2559.59	162.349
2558.89	155.109
2558.2	169.511
2557.51	118.999
2556.81	155.035
2556.12	162.22
2555.43	173.007
2554.73	169.376
2554.04	172.952
2553.34	169.322
2552.65	165.693
2551.96	187.276
2551.26	126.031
2550.57	158.414
2549.87	151.189
2549.18	154.764
2548.48	143.944
2547.79	133.127
2547.09	154.69
2546.4	183.441
2545.7	136.659
2545.01	158.212
2544.31	154.592
2543.62	165.351
2542.92	165.325
2542.23	143.738
2541.53	158.086
2540.83	168.838
2540.14	165.219
2539.44	136.464
2538.75	172.348
2538.05	147.191
2537.35	175.883
2536.66	125.61
2535.96	143.532
2535.26	168.623
2534.57	147.073
2533.87	168.57
2533.17	168.543
2532.48	175.687
2531.78	168.489
2531.08	139.788
2530.38	186.354
2529.68	171.992
2528.99	175.547
2528.29	175.519
2527.59	157.584
2526.89	161.14
2526.19	168.275
2525.5	171.827
2524.8	143.167
2524.1	193.244
2523.4	161.011
2522.7	135.943
2522	175.267
2521.3	160.934
2520.6	168.06
2519.91	168.033
2519.21	168.007
2518.51	185.85
2517.81	167.953
2517.11	192.937
2516.41	150.038
2515.71	175.016
2515.01	157.132
2514.31	203.525
2513.61	167.792
2512.91	199.891
2512.21	185.583
2511.51	157.007
2510.8	164.118
2510.1	164.091
2509.4	192.598
2508.7	167.605
2508	206.799
2507.3	163.987
2506.6	149.703
2505.9	192.445
2505.19	167.472
2504.49	217.322
2503.79	192.353
2503.09	206.568
2502.39	160.243
2501.69	167.338
2500.98	128.153
2500.28	156.607
2499.58	160.141
2498.88	149.441
2498.17	160.089
2497.47	152.95
2496.77	167.151
2496.06	167.124
2495.36	145.766
2494.66	167.071
2493.95	181.261
2493.25	199
2492.55	149.226
2491.84	195.384
2491.14	170.49
2490.44	181.116
2489.73	205.942
2489.03	177.508
2488.32	181.029
2487.62	212.942
2486.91	212.908
2486.21	184.491
2485.5	170.272
2484.8	180.885
2484.09	187.948
2483.39	205.646
2482.68	202.068
2481.98	184.314
2481.27	177.196
2480.57	173.625
2479.86	184.225
2479.16	187.738
2478.45	177.083
2477.74	184.137
2477.04	169.945
2476.33	187.618
2475.63	194.667
2474.92	180.48
2474.21	162.76
2473.51	173.347
2472.8	169.782
2472.09	187.438
2471.39	190.944
2470.68	187.378
2469.97	176.743
2469.26	201.455
2468.56	162.552
2467.85	204.924
2467.14	197.826
2466.43	148.346
2465.73	183.637
2465.02	204.793
2464.31	215.351
2463.6	172.959
2462.89	187.048
2462.18	187.019
2461.48	176.404
2460.77	155.211
2460.06	179.875
2459.35	197.478
2458.64	190.395
2457.93	200.94
2457.22	183.284
2456.51	214.972
2455.8	190.273
2455.09	190.242
2454.38	207.824
2453.67	218.356
2452.96	151.416
2452.25	183.079
2451.54	161.928
2450.83	179.501
2450.12	197.067
2449.41	204.072
2448.7	228.665
2447.99	196.972
2447.28	165.29
2446.57	196.909
2445.86	175.784
2445.15	179.271
2444.43	182.756
2443.72	189.755
2443.01	175.671
2442.3	214.284
2441.59	193.176
2440.88	193.145
2440.16	235.248
2439.45	207.125
2438.74	200.072
2438.03	189.512
2437.32	210.535
2436.6	217.518
2435.89	199.944
2435.18	203.419
2434.46	192.866
2433.75	210.366
2433.04	192.804
2432.32	217.308
2431.61	206.76
2430.9	161.177
2430.18	178.668
2429.47	171.633
2428.76	213.632
2428.04	227.604
2427.33	203.06
2426.61	199.527
2425.9	213.495
2425.19	220.459
2424.47	199.431
2423.76	213.392
2423.04	181.879
2422.33	181.849
2421.61	185.317
2420.9	178.295
2420.18	237.688
2419.47	206.197
2418.75	192.186
2418.04	241.068
2417.32	188.631
2416.6	230.512
2415.89	223.491
2415.17	240.913
2414.46	226.91
2413.74	198.951
2413.02	226.837
2412.31	205.865
2411.59	237.231
2410.87	191.847
2410.16	202.279
2409.44	233.629
2408.72	216.159
2408.01	188.238
2407.29	216.09
2406.57	149.845
2405.85	236.926
2405.14	222.953
2404.42	240.332
2403.7	181.091
2402.98	188.026
2402.26	205.403
2401.55	181.004
2400.83	191.415
2400.11	201.824
2399.39	201.791
2398.67	229.588
2397.95	208.682
2397.23	219.081
2396.51	180.8
2395.8	198.153
2395.08	201.596
2394.36	208.515
2393.64	205.006
2392.92	191.077
2392.2	211.887
2391.48	173.65
2390.76	225.709
2390.04	260.391
2389.32	218.694
2388.6	246.425
2387.88	204.742
2387.16	211.649
2386.44	194.269
2385.72	190.769
2384.99	211.546
2384.27	225.382
2383.55	208.011
2382.83	187.18
2382.11	235.67
2381.39	228.702
2380.67	232.13
2379.95	245.949
2379.22	155.858
2378.5	197.388
2377.78	231.98
2377.06	211.172
2376.33	218.06
2375.61	221.486
2374.89	207.61
2374.17	214.495
2373.44	221.379
2372.72	217.885
2372	235.139
2371.28	221.272
2370.55	245.434
2369.83	248.85
2369.11	231.532
2368.38	221.129
2367.66	262.548
2366.93	241.782
2366.21	255.557
2365.49	196.816
2364.76	241.665
2364.04	227.819
2363.31	217.428
2362.59	200.14
2361.86	251.859
2361.14	220.772
2360.42	231.084
2359.69	289.67
2358.97	220.666
2358.24	210.288
2357.51	296.424
2356.79	237.79
2356.06	234.306
2355.34	220.488
2354.61	210.118
2353.89	203.196
2353.16	185.946
2352.43	206.574
2351.71	240.964
2350.98	240.925
2350.26	196.15
2349.53	192.677
2348.8	220.167
2348.07	237.329
2347.35	223.535
2346.62	213.184
2345.89	209.711
2345.17	264.675
2344.44	213.08
2343.71	226.791
2342.98	223.318
2342.26	237.023
2341.53	250.723
2340.8	254.116
2340.07	219.741
2339.34	216.272
2338.62	253.993
2337.89	247.088
2337.16	257.342
2336.43	236.716
2335.7	236.678
2334.97	260.647
2334.24	219.457
2333.51	226.278
2332.78	253.665
2332.05	260.478
2331.33	233.022
2330.6	260.394
2329.87	253.501
2329.14	226.058
2328.41	243.145
2327.68	267.074
2326.95	219.102
2326.22	208.798
2325.48	225.876
2324.75	260.057
2324.02	229.224
2323.29	215.504
2322.56	277.032
2321.83	225.693
2321.1	287.199
2320.37	263.223
2319.64	235.837
2318.9	239.216
2318.17	256.262
2317.44	252.804
2316.71	256.179
2315.98	235.646
2315.25	235.608
2314.51	259.468
2313.78	242.359
2313.05	249.145
2312.32	262.755
2311.58	259.3
2310.85	238.79
2310.12	286.502
2309.38	214.842
2308.65	255.722
2307.92	238.636
2307.18	245.414
2306.45	224.926
2305.72	211.26
2304.98	258.922
2304.25	252.068
2303.51	231.592
2302.78	258.796
2302.05	282.587
2301.31	268.925
2300.58	258.67
2299.84	238.21
2299.11	255.184
2298.37	224.526
2297.64	244.897
2296.9	255.06
2296.17	275.42
2295.43	251.577
2294.7	248.138
2293.96	302.475
2293.23	237.863
2292.49	261.607
2291.75	271.755
2291.02	264.918
2290.28	264.875
2289.55	258.042
2288.81	237.631
2288.07	251.17
2287.34	223.98
2286.6	240.909
2285.86	271.402
2285.12	227.263
2284.39	247.574
2283.65	295.006
2282.91	325.471
2282.18	233.895
2281.44	254.192
2280.7	267.705
2279.96	274.438
2279.22	250.681
2278.49	257.414
2277.75	277.691
2277.01	247.173
2276.27	267.445
2275.53	257.247
2274.79	267.358
2274.05	260.547
2273.32	253.738
2272.58	250.314
2271.84	240.127
2271.1	270.522
2270.36	277.24
2269.62	240.01
2268.88	246.731
2268.14	294.001
2267.4	283.817
2266.66	280.393
2265.92	273.592
2265.18	266.793
2264.44	239.737
2263.7	283.587
2262.96	243.035
2262.22	256.495
2261.48	266.576
2260.74	256.412
2259.99	263.116
2259.25	249.583
2258.51	276.52
2257.77	293.333
2257.03	259.574
2256.29	266.273
2255.55	246.01
2254.8	286.403
2254.06	296.463
2253.32	272.836
2252.58	296.367
2251.83	262.646
2251.09	272.703
2250.35	232.265
2249.61	262.518
2248.86	302.856
2248.12	265.797
2247.38	255.661
2246.63	275.8
2245.89	265.667
2245.15	242.087
2244.4	238.686
2243.66	289.066
2242.92	282.297
2242.17	288.971
2241.43	258.688
2240.68	231.774
2239.94	282.113
2239.19	305.573
2238.45	288.736
2237.7	305.473
2236.96	268.504
2236.21	265.105
2235.47	271.772
2234.72	288.501
2233.98	285.1
2233.23	258.225
2232.49	234.711
2231.74	284.96
2231	264.802
2230.25	271.462
2229.5	271.418
2228.76	264.673
2228.01	267.979
2227.27	254.539
2226.52	318.122
2225.77	264.5
2225.03	297.932
2224.28	257.72
2223.53	281.103
2222.78	247.598
2222.04	301.083
2221.29	287.655
2220.54	280.92
2219.79	237.405
2219.05	304.23
2218.3	284.125
2217.55	297.447
2216.8	317.447
2216.05	287.327
2215.31	287.28
2214.56	240.474
2213.81	277.168
2213.06	280.461
2212.31	340.505
2211.56	310.409
2210.81	286.998
2210.06	296.961
2209.31	270.224
2208.56	280.187
2207.81	283.476
2207.07	316.774
2206.32	296.719
2205.57	263.337
2204.82	283.291
2204.06	306.57
2203.31	283.198
2202.56	276.489
2201.81	289.767
2201.06	269.739
2200.31	273.024
2199.56	286.296
2198.81	299.563
2198.06	289.53
2197.31	306.12
2196.56	276.128
2195.8	272.757
2195.05	269.386
2194.3	329.196
2193.55	315.844
2192.8	312.468
2192.04	279.181
2191.29	295.75
2190.54	255.832
2189.79	285.688
2189.03	292.284
2188.28	292.236
2187.53	242.383
2186.78	268.902
2186.02	232.346
2185.27	268.814
2184.52	325.179
2183.76	275.361
2183.01	275.316
2182.25	255.372
2181.5	291.806
2180.75	328.228
2179.99	331.489
2179.24	268.462
2178.48	298.242
2177.73	265.061
2176.97	291.519
2176.22	284.847
2175.46	298.047
2174.71	284.754
2173.95	288.018
2173.2	291.281
2172.44	307.78
2171.69	320.966
2170.93	248.129
2170.18	258.012
2169.42	287.735
2168.67	330.676
2167.91	264.497
2167.15	267.759
2166.4	290.852
2165.64	310.631
2164.88	244.5
2164.13	241.156
2163.37	336.902
2162.61	264.194
2161.86	356.603
2161.1	320.23
2160.34	280.568
2159.58	323.425
2158.83	277.176
2158.07	267.233
2157.31	303.474
2156.55	267.146
2155.79	276.994
2155.04	276.949
2154.28	270.311
2153.52	296.634
2152.76	306.471
2152	289.947
2151.24	299.782
2150.48	299.733
2149.72	306.27
2148.96	240.366
2148.21	286.417
2147.45	312.703
2146.69	263.285
2145.93	250.08
2145.17	335.579
2144.41	276.313
2143.65	296.001
2142.89	309.106
2142.13	338.646
2141.37	285.994
2140.6	295.807
2139.84	266.183
2139.08	292.424
2138.32	295.661
2137.56	318.605
2136.8	279.144
2136.04	315.217
2135.28	285.618
2134.52	311.831
2133.75	298.652
2132.99	318.291
2132.23	295.273
2131.47	305.065
2130.71	278.777
2129.94	295.128
2129.18	308.194
2128.42	295.031
2127.65	314.647
2126.89	311.319
2126.13	301.438
2125.37	291.561
2124.6	311.165
2123.84	288.19
2123.08	320.886
2122.31	281.547
2121.55	301.141
2120.78	333.819
2120.02	291.225
2119.26	300.992
2118.49	310.756
2117.73	277.999
2116.96	310.654
2116.2	294.255
2115.43	336.703
2114.67	333.379
2113.9	277.77
2113.14	316.933
2112.37	310.347
2111.61	313.562
2110.84	284.119
2110.08	284.072
2109.31	329.731
2108.55	267.658
2107.78	316.568
2107.01	300.201
2106.25	280.576
2105.48	316.412
2104.71	296.791
2103.95	300.003
2103.18	312.995
2102.41	290.125
2101.65	277.04
2100.88	293.288
2100.11	322.563
2099.34	315.995
2098.58	325.714
2097.81	289.838
2097.04	322.351
2096.27	279.976
2095.51	292.95
2094.74	318.937
2093.97	309.123
2093.2	302.565
2092.43	315.527
2091.66	341.493
2090.89	308.919
2090.13	312.119
2089.36	312.068
2088.59	351.018
2087.82	311.965
2087.05	354.152
2086.28	318.359
2085.51	350.787
2084.74	350.729
2083.97	331.19
2083.2	305.164
2082.43	305.113
2081.66	324.535
2080.89	327.726
2080.12	337.405
2079.35	343.837
2078.58	321.078
2077.81	317.782
2077.03	327.456
2076.26	307.952
2075.49	307.901
2074.72	333.775
2073.95	317.52
2073.18	307.749
2072.4	310.937
2071.63	317.363
2070.86	310.834
2070.09	323.732
2069.32	365.757
2068.54	323.625
2067.77	352.694
2067	300.872
2066.23	346.108
2065.45	304.007
2064.68	333.059
2063.91	368.568
2063.13	316.786
2062.36	287.646
2061.59	303.756
2060.81	361.862
2060.04	365.033
2059.26	313.295
2058.49	351.995
2057.72	339.022
2056.94	296.998
2056.17	309.86
2055.39	322.718
2054.62	332.344
2053.84	306.48
2053.07	293.527
2052.29	309.604
2051.52	316.002
2050.74	335.294
2049.97	335.238
2049.19	302.954
2048.41	319.015
2047.64	367.29
2046.86	344.68
2046.09	347.844
2045.31	344.566
2044.53	318.751
2043.76	338.014
2042.98	289.678
2042.2	344.338
2041.43	305.67
2040.65	366.744
2039.87	302.353
2039.09	331.246
2038.32	340.838
2037.54	324.707
2036.76	376.083
2035.98	337.455
2035.21	330.972
2034.43	334.13
2033.65	327.65
2032.87	305.114
2032.09	378.921
2031.31	308.224
2030.53	314.593
2029.76	324.17
2028.98	336.952
2028.2	343.313
2027.42	311.176
2026.64	349.615
2025.86	339.936
2025.08	336.673
2024.3	339.823
2023.52	387.847
2022.74	333.301
2021.96	342.858
2021.18	329.987
2020.4	339.542
2019.62	358.701
2018.84	342.631
2018.06	288.147
2017.28	310.507
2016.49	329.659
2015.71	355.204
2014.93	335.948
2014.15	329.495
2013.37	348.631
2012.59	338.979
2011.8	348.515
2011.02	364.441
2010.24	370.774
2009.46	325.971
2008.68	313.136
2007.89	322.668
2007.11	297.061
2006.33	309.786
2005.55	319.314
2004.76	354.38
2003.98	335.169
2003.2	414.902
2002.41	351.013
2001.63	338.192
2000.84	354.086
2000.06	360.406
1999.28	369.913
1998.49	328.403
1997.71	296.47
1996.92	328.294
1996.14	369.667
1995.36	366.42
1994.57	321.759
1993.79	324.89
1993	331.206
1992.22	378.913
1991.43	311.994
1990.64	385.153
1989.86	321.438
1989.07	340.477
1988.29	340.42
1987.5	365.811
1986.72	388.014
1985.93	387.949
1985.14	375.167
1984.36	330.601
1983.57	346.437
1982.78	314.602
1982	327.259
1981.21	355.795
1980.42	349.383
1979.64	342.974
1978.85	330.216
1978.06	380.955
1977.27	355.499
1976.49	374.481
1975.7	323.65
1974.91	374.357
1974.12	380.638
1973.33	342.518
1972.54	320.264
1971.76	386.789
1970.97	380.385
1970.18	383.491
1969.39	320.051
1968.6	383.364
1967.81	351.622
1967.02	357.898
1966.23	329.338
1965.44	370.444
1964.65	348.222
1963.86	376.651
1963.07	357.6
1962.28	382.853
1961.49	332.173
1960.7	360.585
1959.91	332.062
1959.12	366.788
1958.33	350.92
1957.54	357.184
1956.75	376.086
1955.96	394.983
1955.17	334.89
1954.37	319.04
1953.58	378.994
1952.79	385.246
1952	318.88
1951.21	344.081
1950.42	359.804
1949.62	381.834
1948.83	343.909
1948.04	340.697
1947.25	356.41
1946.45	331.123
1945.66	359.445
1944.87	340.47
1944.07	368.781
1943.28	359.265
1942.49	381.261
1941.69	355.995
1940.9	368.535
1940.11	343.278
1939.31	355.816
1938.52	330.571
1937.72	314.777
1936.93	355.638
1936.14	412.22
1935.34	396.42
1934.55	380.626
1933.75	355.401
1932.96	371.065
1932.16	355.282
1931.37	383.515
1930.57	358.307
1929.77	373.96
1928.98	361.329
1928.18	358.127
1927.39	358.068
1926.59	405.114
1925.79	364.228
1925	345.331
1924.2	373.523
1923.41	386.014
1922.61	351.433
1921.81	389.022
1921.01	319.948
1920.22	329.304
1919.42	373.148
1918.62	366.816
1917.83	366.754
1917.03	341.62
1916.23	388.567
1915.43	354.038
1914.63	363.377
1913.84	378.976
1913.04	385.176
1912.24	375.719
1911.44	341.221
1910.64	375.593
1909.84	344.236
1909.04	431.787
1908.24	347.249
1907.45	340.935
1906.65	381.534
1905.85	337.695
1905.05	328.259
1904.25	381.342
1903.45	331.275
1902.65	399.963
1901.85	387.399
1901.05	362.345
1900.25	359.161
1899.45	337.243
1898.64	377.774
1897.84	362.103
1897.04	421.342
1896.24	377.584
1895.44	371.281
1894.64	364.98
1893.84	368.038
1893.04	336.792
1892.23	339.853
1891.43	370.97
1890.63	349.09
1889.83	377.079
1889.03	389.479
1888.22	358.26
1887.42	370.66
1886.62	395.512
1885.81	373.649
1885.01	376.7
1884.21	420.214
1883.4	420.144
1882.6	438.744
1881.8	401.336
1880.99	419.933
1880.19	401.202
1879.39	370.039
1878.58	382.413
1877.78	310.853
1876.97	363.637
1876.17	394.651
1875.36	379.05
1874.56	372.773
1873.75	385.135
1872.95	388.175
1872.14	378.796
1871.34	381.836
1870.53	400.395
1869.73	381.708
1868.92	394.056
1868.12	431.217
1867.31	362.906
1866.5	381.452
1865.7	372.086
1864.89	368.924
1864.09	371.961
1863.28	396.692
1862.47	412.119
1861.66	427.54
1860.86	377.907
1860.05	390.232
1859.24	374.683
1858.44	411.773
1857.63	377.653
1856.82	362.115
1856.01	371.337
1855.2	380.557
1854.4	346.465
1853.59	352.593
1852.78	343.256
1851.97	383.393
1851.16	398.786
1850.35	411.082
1849.54	395.561
1848.74	336.789
1847.93	364.536
1847.12	404.628
1846.31	358.237
1845.5	364.352
1844.69	413.686
1843.88	342.623
1843.07	385.771
1842.26	367.193
1841.45	373.301
1840.64	391.746
1839.83	394.764
1839.02	403.949
1838.2	363.801
1837.39	354.492
1836.58	425.319
1835.77	369.78
1834.96	400.528
1834.15	388.139
1833.34	397.313
1832.52	369.532
1831.71	397.18
1830.9	397.113
1830.09	387.812
1829.28	372.36
1828.46	375.375
1827.65	387.617
1826.84	390.627
1826.02	399.787
1825.21	399.72
1824.4	384.282
1823.59	365.775
1822.77	430.251
1821.96	356.433
1821.14	408.6
1820.33	362.457
1819.52	429.961
1818.7	396.111
1817.89	374.554
1817.07	420.535
1816.26	383.635
1815.44	371.296
1814.63	362.029
1813.81	398.779
1813	414.047
1812.18	392.511
1811.37	358.72
1810.55	419.968
1809.74	429.092
1808.92	413.698
1808.11	422.82
1807.29	419.685
1806.47	419.615
1805.66	410.357
1804.84	370.484
1804.02	373.482
1803.21	407.088
1802.39	419.261
1801.57	413.071
1800.76	422.179
1799.94	412.931
1799.12	412.862
1798.3	345.522
1797.49	406.608
1796.67	372.916
1795.85	421.752
1795.03	397.235
1794.21	363.562
1793.4	409.32
1792.58	384.818
1791.76	412.235
1790.94	344.998
1790.12	402.939
1789.3	393.714
1788.48	387.545
1787.66	457.653
1786.84	405.717
1786.02	408.699
1785.2	396.432
1784.38	381.12
1783.56	445.073
1782.74	423.662
1781.92	365.69
1781.1	417.425
1780.28	405.169
1779.46	423.376
1778.64	344.125
1777.82	398.874
1777	410.984
1776.18	435.265
1775.35	416.932
1774.53	410.776
1773.71	413.749
1772.89	468.43
1772.07	428.815
1771.25	389.213
1770.42	401.308
1769.6	373.883
1768.78	410.29
1767.96	434.53
1767.13	431.419
1766.31	422.233
1765.49	434.31
1764.66	461.566
1763.84	406.838
1763.02	464.445
1762.19	443.121
1761.37	397.528
1760.54	439.937
1759.72	427.729
1758.9	415.524
1758.07	382.096
1757.25	406.288
1756.42	415.313
1755.6	451.615
1754.77	436.386
1753.95	430.252
1753.12	445.327
1752.3	411.933
1751.47	408.835
1750.65	420.877
1749.82	429.888
1748.99	411.654
1748.17	429.743
1747.34	429.67
1746.52	423.546
1745.69	438.599
1744.86	435.5
1744.04	465.664
1743.21	441.399
1742.38	438.302
1741.55	429.161
1740.73	404.914
1739.9	425.994
1739.07	441.026
1738.24	392.627
1737.42	452.955
1736.59	483.07
1735.76	428.652
1734.93	476.87
1734.1	431.524
1733.27	425.417
1732.45	416.295
1731.62	446.385
1730.79	449.325
1729.96	431.159
1729.13	422.042
1728.3	412.928
1727.47	340.532
1726.64	427.853
1725.81	406.693
1724.98	460.84
1724.15	415.589
1723.32	442.618
1722.49	433.511
1721.66	418.388
1720.83	430.355
1720	433.291
1719.17	394.107
1718.34	475.255
1717.5	390.966
1716.67	454.045
1715.84	459.981
1715.01	462.909
1714.18	405.728
1713.35	420.683
1712.51	453.66
1711.68	426.548
1710.85	444.496
1710.02	414.392
1709.18	468.363
1708.35	408.247
1707.52	462.202
1706.68	459.122
1705.85	393.038
1705.02	443.967
1704.18	458.888
1703.35	431.822
1702.52	500.708
1701.68	482.636
1700.85	401.629
1700.01	434.525
1699.18	473.402
1698.35	443.364
1697.51	416.332
1696.68	437.224
1695.84	440.144
1695.01	467.012
1694.17	401.083
1693.34	460.868
1692.5	472.758
1691.66	436.778
1690.83	469.606
1689.99	478.498
1689.16	457.486
1688.32	397.616
1687.48	427.44
1686.65	451.275
1685.81	499.008
1684.97	427.221
1684.14	465.98
1683.3	483.82
1682.46	480.752
1681.63	447.829
1680.79	474.618
1679.95	456.63
1679.11	456.553
1678.27	486.31
1677.44	453.414
1676.6	471.232
1675.76	426.422
1674.92	485.979
1674.08	432.239
1673.24	432.165
1672.41	470.831
1671.57	464.792
1670.73	494.502
1669.89	494.418
1669.05	458.598
1668.21	470.43
1667.37	491.188
1666.53	479.199
1665.69	493.997
1664.85	499.863
1664.01	481.929
1663.17	481.847
1662.33	511.503
1661.49	431.135
1660.64	439.98
1659.8	481.518
1658.96	487.38
1658.12	493.239
1657.28	502.068
1656.44	475.249
1655.6	472.198
1654.75	498.841
1653.91	480.944
1653.07	463.052
1652.23	465.941
1651.38	519.272
1650.54	474.682
1649.7	498.331
1648.86	513.075
1648.01	465.543
1647.17	521.794
1646.33	518.741
1645.48	483.087
1644.64	488.931
1643.8	471.072
1642.95	515.424
1642.11	488.681
1641.26	467.869
1640.42	506.278
1639.57	526.913
1638.73	449.871
1637.88	523.774
1637.04	488.181
1636.19	511.762
1635.35	520.548
1634.5	523.416
1633.66	467.151
1632.81	490.72
1631.97	532.015
1631.12	493.507
1630.28	463.877
1629.43	514.018
1628.58	445.996
1627.74	513.842
1626.89	510.801
1626.04	498.906
1625.2	478.159
1624.35	519.393
1623.5	507.502
1622.65	507.415
1621.81	501.429
1620.96	486.598
1620.11	545.486
1619.26	474.639
1618.41	492.243
1617.57	554.047
1616.72	497.968
1615.87	518.505
1615.02	497.798
1614.17	530.108
1613.32	544.74
1612.47	577.031
1611.62	553.384
1610.77	565.062
1609.92	576.735
1609.07	570.752
1608.22	558.888
1607.37	570.557
1606.52	532.233
1605.67	555.661
1604.82	546.748
1603.97	587.8
1603.12	540.684
1602.27	567.033
1601.42	602.186
1600.57	566.839
1599.72	613.725
1598.87	584.26
1598.01	607.644
1597.16	598.735
1596.31	619.174
1595.46	595.596
1594.61	592.561
1593.75	612.99
1592.9	539.573
1592.05	609.848
1591.2	545.251
1590.34	583.26
1589.49	539.203
1588.64	574.27
1587.78	541.948
1586.93	518.423
1586.08	521.263
1585.22	556.309
1584.37	550.359
1583.51	579.534
1582.66	538.464
1581.81	579.335
1580.95	564.608
1580.1	549.887
1579.24	511.775
1578.39	508.763
1577.53	532.063
1576.68	558.278
1575.82	558.182
1574.96	593.15
1574.11	595.969
1573.25	525.765
1572.4	549.038
1571.54	516.825
1570.68	560.527
1569.83	563.35
1568.97	577.845
1568.11	551.485
1567.26	595.151
1566.4	606.717
1565.54	609.529
1564.69	658.995
1563.83	591.827
1562.97	638.364
1562.11	626.597
1561.26	600.264
1560.4	632.208
1559.54	635.013
1558.68	634.903
1557.82	681.385
1556.96	681.268
1556.1	669.507
1555.25	718.869
1554.39	707.106
1553.53	721.531
1552.67	715.589
1551.81	776.543
1550.95	767.685
1550.09	697.776
1549.23	755.794
1548.37	767.289
1547.51	784.593
1546.65	801.89
1545.79	856.946
1544.93	952.643
1544.07	1025.08
1543.2	1100.39
1542.34	1135.03
1541.48	1256.74
1540.62	1326.17
1539.76	1346.25
1538.9	1412.74
1538.03	1287.78
1537.17	1293.36
1536.31	1327.93
1535.45	1411.77
1534.59	1570.94
1533.72	1761.93
1532.86	2074.55
1532	2155.3
1531.13	2183.9
1530.27	2218.27
1529.41	2021
1528.54	1699.32
1527.68	1412.48
1526.82	1119.95
1525.95	977.976
1525.09	867.877
1524.22	833.018
1523.36	777.928
1522.49	719.966
1521.63	682.259
1520.76	708.156
1519.9	632.895
1519.03	679.017
1518.17	609.566
1517.3	684.56
1516.44	629.571
1515.57	669.887
1514.71	666.884
1513.84	637.905
1512.97	640.681
1512.11	637.685
1511.24	631.805
1510.37	628.812
1509.51	628.703
1508.64	671.847
1507.77	640.018
1506.91	657.203
1506.04	668.617
1505.17	610.872
1504.3	613.648
1503.43	679.793
1502.57	584.636
1501.7	633.487
1500.83	650.651
1499.96	604.483
1499.09	589.989
1498.22	610.029
1497.35	627.186
1496.49	632.831
1495.62	606.837
1494.75	603.857
1493.88	606.628
1493.01	603.649
1492.14	646.655
1491.27	652.29
1490.4	586.098
1489.53	626.212
1488.66	611.744
1487.79	577.179
1486.92	623.016
1486.04	668.838
1485.17	617.061
1484.3	645.65
1483.43	622.586
1482.56	639.69
1481.69	668.26
1480.82	627.998
1479.94	650.826
1479.07	685.113
1478.2	659.2
1477.33	647.623
1476.45	633.186
1475.58	633.076
1474.71	641.559
1473.84	618.539
1472.96	612.706
1472.09	632.638
1471.22	615.356
1470.34	623.835
1469.47	597.977
1468.59	620.758
1467.72	614.931
1466.85	654.859
1465.97	649.028
1465.1	668.926
1464.22	623.079
1463.35	637.26
1462.47	645.721
1461.6	679.89
1460.72	674.059
1459.85	665.376
1458.97	650.984
1458.1	719.385
1457.22	704.989
1456.34	807.601
1455.47	847.406
1454.59	992.748
1453.71	1006.84
1452.84	1115.03
1451.96	1040.7
1451.08	974.956
1450.21	912.081
1449.33	849.228
1448.45	834.835
1447.58	712.193
1446.7	712.07
1445.82	717.642
1444.94	677.655
1444.06	700.312
1443.18	722.961
1442.31	660.228
1441.43	711.329
1440.55	659.999
1439.67	676.951
1438.79	702.428
1437.91	659.656
1437.03	662.384
1436.15	636.688
1435.27	642.261
1434.39	667.722
1433.51	684.652
1432.63	710.096
1431.75	727.013
1430.87	715.529
1429.99	684.177
1429.11	720.957
1428.23	686.777
1427.35	760.431
1426.47	709.234
1425.59	694.929
1424.7	726.004
1423.82	657.827
1422.94	654.878
1422.06	671.771
1421.18	722.666
1420.29	626.202
1419.41	660.089
1418.53	654.309
1417.65	705.172
1416.76	671.071
1415.88	707.758
1415	636.871
1414.11	679.211
1413.23	696.071
1412.35	695.95
1411.46	627.943
1410.58	650.459
1409.7	695.587
1408.81	602.172
1407.93	664.253
1407.04	715.007
1406.16	647.068
1405.27	666.731
1404.39	655.317
1403.5	635.434
1402.62	669.207
1401.73	680.384
1400.85	697.201
1399.96	722.48
1399.07	660.277
1398.19	674.268
1397.3	699.537
1396.41	640.191
1395.53	696.474
1394.64	693.533
1393.75	656.769
1392.87	715.838
1391.98	726.985
1391.09	715.589
1390.2	707.014
1389.32	642.116
1388.43	729.294
1387.54	703.83
1386.65	669.929
1385.76	703.585
1384.88	697.834
1383.99	680.833
1383.1	689.153
1382.21	750.905
1381.32	705.784
1380.43	781.569
1379.54	711.16
1378.65	680.121
1377.76	722.152
1376.87	761.358
1375.98	792.124
1375.09	749.859
1374.2	766.576
1373.31	713.1
1372.42	799.993
1371.53	794.24
1370.64	802.52
1369.75	763.103
1368.86	768.58
1367.97	740.4
1367.07	776.724
1366.18	742.946
1365.29	787.665
1364.4	706.253
1363.51	764.974
1362.61	818.071
1361.72	775.912
1360.83	792.58
1359.94	784.041
1359.04	761.507
1358.15	834.153
1357.26	744.449
1356.36	682.759
1355.47	816.93
1354.58	800.004
1353.68	780.287
1352.79	785.744
1351.89	827.543
1351	888.894
1350.11	860.791
1349.21	978.001
1348.32	1097.96
1347.42	1170.4
1346.53	1321.01
1345.63	1507.86
1344.73	1672.32
1343.84	1747.39
1342.94	1721.97
1342.05	1738.41
1341.15	1646.04
1340.26	1642.96
1339.36	1514.39
1338.46	1405.37
1337.57	1257.37
1336.67	1170.73
1335.77	1056.26
1334.87	997.563
1333.98	1000.17
1333.08	927.576
1332.18	893.994
1331.28	913.329
1330.39	888.113
1329.49	943.629
1328.59	826.575
1327.69	843.126
1326.79	848.542
1325.89	915.153
1325	906.649
1324.1	828.633
1323.2	859.069
1322.3	842.241
1321.4	850.431
1320.5	853.061
1319.6	827.908
1318.7	863.873
1317.8	838.727
1316.9	783.045
1316	813.447
1315.1	929.888
1314.2	860.342
1313.29	860.192
1312.39	929.399
1311.49	912.593
1310.59	940.167
1309.69	1020.42
1308.79	1034.1
1307.89	1003.43
1306.98	994.937
1306.08	1008.62
1305.18	1013.98
1304.28	925.165
1303.37	972.084
1302.47	919.303
1301.57	877.614
1300.66	869.157
1299.76	910.517
1298.86	929.727
1297.95	910.198
1297.05	907.272
1296.15	951.363
1295.24	998.203
1294.34	1036.73
1293.43	1036.55
1292.53	1030.84
1291.62	983.687
1290.72	1002.85
1289.81	950.196
1288.91	963.837
1288	996.803
1287.1	1043.56
1286.19	988.173
1285.29	974.2
1284.38	990.585
1283.47	1018
1282.57	937.829
1281.66	1009.37
1280.75	1006.43
1279.85	898.739
1278.94	939.927
1278.03	846.062
1277.13	887.245
1276.22	815.46
1275.31	809.808
1274.4	826.19
1273.5	798.51
1272.59	801.123
1271.68	759.694
1270.77	817.354
1269.86	742.918
1268.95	778.552
1268.04	745.408
1267.14	797.529
1266.23	778.141
1265.32	750.513
1264.41	802.606
1263.5	838.191
1262.59	843.539
1261.68	752.733
1260.77	777.321
1259.86	733.245
1258.95	757.828
1258.04	722.006
1257.13	743.837
1256.21	812.314
1255.3	771.014
1254.39	759.905
1253.48	798.171
1252.57	814.485
1251.66	806.116
1250.75	827.905
1249.83	761.978
1248.92	791.988
1248.01	805.549
1247.1	764.315
1246.18	769.658
1245.27	687.367
1244.36	774.864
1243.44	747.352
1242.53	760.905
1241.62	788.137
1240.7	719.596
1239.79	771.446
1238.88	782.251
1237.96	795.786
1237.05	738.229
1236.13	770.903
1235.22	751.635
1234.3	787.028
1233.39	751.37
1232.47	792.214
1231.56	822.119
1230.64	759.165
1229.73	794.526
1228.81	835.333
1227.89	775.14
1226.98	772.275
1226.06	826.707
1225.15	856.568
1224.23	853.69
1223.31	880.809
1222.4	894.286
1221.48	962.278
1220.56	967.56
1219.64	921.063
1218.73	991.74
1217.81	1051.49
1216.89	1007.73
1215.97	1053.85
1215.05	1015.54
1214.14	977.254
1213.22	1069.62
1212.3	993.237
1211.38	995.782
1210.46	976.565
1209.54	951.915
1208.62	1006.13
1207.7	929.828
1206.78	989.467
1205.86	978.421
1204.94	907.597
1204.02	961.775
1203.1	964.321
1202.18	904.401
1201.26	939.542
1200.34	944.806
1199.42	890.349
1198.5	990.61
1197.58	966.013
1196.66	935.999
1195.73	916.846
1194.81	946.517
1193.89	892.118
1192.97	908.227
1192.05	905.356
1191.12	878.094
1190.2	934.842
1189.28	940.095
1188.35	845.124
1187.43	947.888
1186.51	874.61
1185.59	980.04
1184.66	885.128
1183.74	976.987
1182.81	860.463
1181.89	898.186
1180.97	806.06
1180.04	862.711
1179.12	778.736
1178.19	805.633
1177.27	821.708
1176.34	843.183
1175.42	883.564
1174.49	837.481
1173.57	802.219
1172.64	839.886
1171.71	799.235
1170.79	847.687
1169.86	863.732
1168.94	850.086
1168.01	814.859
1167.08	898.344
1166.16	914.369
1165.23	881.845
1164.3	860.119
1163.37	833.008
1162.45	892.158
1161.52	900.085
1160.59	867.593
1159.66	956.338
1158.73	869.979
1157.81	915.605
1156.88	848.131
1155.95	912.589
1155.02	872.054
1154.09	928.412
1153.16	863.673
1152.23	855.45
1151.3	901.022
1150.37	911.619
1149.44	927.589
1148.51	1080.65
1147.58	1005.2
1146.65	1158.2
1145.72	1209.04
1144.79	1192.71
1143.86	1154.9
1142.93	1111.73
1142	1122.27
1141.07	1057.64
1140.14	1003.78
1139.2	936.515
1138.27	882.69
1137.34	901.31
1136.41	887.74
1135.48	882.22
1134.54	903.512
1133.61	844.379
1132.68	929.992
1131.75	897.671
1130.81	822.496
1129.88	862.53
1128.95	886.481
1128.01	880.968
1127.08	867.425
1126.14	827.12
1125.21	805.563
1124.28	850.908
1123.34	824.004
1122.41	866.655
1121.47	903.943
1120.54	810.195
1119.6	831.439
1118.67	823.272
1117.73	873.903
1116.8	889.78
1115.86	844.205
1114.92	886.792
1113.99	907.999
1113.05	910.508
1112.11	953.061
1111.18	992.929
1110.24	1011.43
1109.3	976.566
1108.37	939.044
1107.43	986.888
1106.49	941.377
1105.55	909.214
1104.62	805.084
1103.68	858.248
1102.74	868.755
1101.8	884.587
1100.86	857.79
1099.93	831.003
1098.99	844.17
1098.05	822.72
1097.11	833.221
1096.17	896.951
1095.23	848.892
1094.29	872.686
1093.35	811.347
1092.41	856.417
1091.47	866.902
1090.53	877.382
1089.59	845.327
1088.65	882.385
1087.71	842.368
1086.77	863.473
1085.83	911.134
1084.88	847.23
1083.94	857.701
1083	884.098
1082.06	857.395
1081.12	865.205
1080.18	811.98
1079.23	878.161
1078.29	893.92
1077.35	893.761
1076.41	843.221
1075.46	840.419
1074.52	840.269
1073.58	882.523
1072.63	879.716
1071.69	874.261
1070.75	868.807
1069.8	831.576
1068.86	865.849
1067.91	841.868
1066.97	876.128
1066.02	807.164
1065.08	867.878
1064.13	912.696
1063.19	886.083
1062.24	796.01
1061.3	780.004
1060.35	869.747
1059.41	845.804
1058.46	824.511
1057.51	861.355
1056.57	850.634
1055.62	831.994
1054.67	863.535
1053.73	834.337
1052.78	873.786
1051.83	815.563
1050.89	847.085
1049.94	839.018
1048.99	857.334
1048.04	854.543
1047.09	864.938
1046.15	872.694
1045.2	898.898
1044.25	843.39
1043.3	827.429
1042.35	930.032
1041.4	816.596
1040.45	871.758
1039.5	879.502
1038.55	955.695
1037.6	892.349
1036.66	944.826
1035.7	928.869
1034.75	815.575
1033.8	878.559
1032.85	959.93
1031.9	833.544
1030.95	883.346
1030	912.102
1029.05	906.682
1028.1	914.403
1027.15	848.561
1026.19	819.516
1025.24	840.379
1024.29	890.117
1023.34	900.459
1022.39	842.553
1021.43	905.385
1020.48	905.223
1019.53	855.217
1018.57	802.606
1017.62	875.89
1016.67	865.246
1015.71	823.147
1014.76	867.557
1013.81	867.402
1012.85	885.587
1011.9	898.526
1010.94	935.033
1009.99	945.34
1009.03	879.716
1008.08	965.943
1007.12	971.005
1006.17	942.046
1005.21	907.865
1004.26	946.94
1003.3	878.77
1002.34	855.079
1001.39	912.443
1000.43	925.35
999.476	906.889
998.519	846.627
997.562	901.339
996.605	885.505
995.648	887.957
994.69	859.075
993.733	874.585
992.775	861.377
991.817	866.442
990.859	908.036
989.901	894.829
988.942	923.36
987.983	925.802
987.025	941.281
986.066	904.614
985.107	917.484
984.147	914.714
983.188	891.1
982.228	948.251
981.268	911.617
980.308	924.474
979.348	924.308
978.388	942.364
977.427	900.551
976.466	900.389
975.506	897.626
974.545	822.025
973.583	871.294
972.622	899.742
971.66	883.981
970.699	876.024
969.737	907.055
968.775	930.279
967.812	950.896
966.85	906.566
965.887	859.654
964.925	914.03
963.962	856.749
962.999	921.488
962.035	921.323
961.072	947.105
960.108	996.227
959.144	959.734
958.18	1034.77
957.216	1031.99
956.252	1112.17
955.287	1150.85
954.323	1129.91
953.358	1160.8
952.393	1132.1
951.428	1033.47
950.462	1020.33
949.497	999.436
948.531	957.836
947.565	880.016
946.599	944.553
945.633	910.747
944.666	923.518
943.7	887.141
942.733	925.771
941.766	951.459
940.799	907.342
939.832	930.44
938.864	945.777
937.897	953.358
936.929	932.521
935.961	891.029
934.993	906.362
934.024	947.507
933.056	890.548
932.087	898.13
931.118	908.29
930.149	941.665
929.18	936.336
928.211	897.483
927.241	928.263
926.271	915.205
925.302	873.799
924.331	914.875
923.361	912.134
922.391	911.969
921.42	945.289
920.449	901.339
919.478	962.972
918.507	942.204
917.536	936.886
916.565	941.864
915.593	921.11
914.621	908.082
913.649	931.066
912.677	974.614
911.705	941.014
910.732	902.285
909.759	884.131
908.786	971.341
907.813	924.92
906.84	886.221
905.867	886.061
904.893	911.58
903.919	939.656
902.945	929.219
901.971	941.883
900.997	941.713
900.023	900.495
899.048	979.849
898.073	912.992
897.098	897.443
896.123	940.863
895.148	966.325
894.172	899.519
893.196	919.855
892.221	858.205
891.244	965.626
890.268	978.256
889.292	955.036
888.315	924.144
887.339	934.214
886.362	936.605
885.384	941.552
884.407	941.382
883.43	954
882.452	956.385
881.474	935.758
880.496	910.026
879.518	943.087
878.54	960.803
877.561	975.959
876.583	973.228
875.604	883.664
874.625	967.769
873.645	1021.21
872.666	936.788
871.686	992.764
870.707	1013
869.727	969.444
868.747	982.022
867.766	984.395
866.786	979.117
865.805	1014.63
864.824	971.116
863.843	942.908
862.862	970.764
861.881	978.231
860.899	1018.81
859.917	975.33
858.936	1018.44
857.953	962.248
856.971	1086.79
855.989	1053.51
855.006	1022.79
854.023	1119.27
853.04	1119.06
852.057	1154.46
851.074	1126.28
850.09	1014.23
849.107	1090.3
848.123	1064.69
847.139	1059.41
846.155	1018.58
845.17	1066.65
844.186	1041.06
843.201	1068.8
842.216	1012.76
841.231	1022.73
840.246	1004.78
839.26	1047.73
838.275	1045
837.289	1039.74
836.303	1057.3
835.317	1011.48
834.33	1031.57
833.344	1094.74
832.357	1117.34
831.37	1020.88
830.383	1076.41
829.396	1038.23
828.408	1015.26
827.421	977.102
826.433	989.58
825.445	1022.3
824.457	1034.76
823.468	976.393
822.48	1034.38
821.491	1062.01
820.502	1114.91
819.513	1104.59
818.524	1041.21
817.535	1051.13
816.545	1076.2
815.555	1010.34
814.565	962.17
813.575	1015.02
812.585	944.149
811.594	949.025
810.604	981.659
809.613	971.388
808.622	963.644
807.631	991.212
806.639	933.033
805.648	917.735
804.656	932.693
803.664	930.003
802.672	1030.63
801.68	962.417
800.687	959.723
799.694	949.474
798.702	951.82
797.709	961.717
796.715	961.542
795.722	999.117
794.728	1009
793.735	1023.91
792.741	993.541
791.747	963.182
790.752	1013.29
789.758	950.261
788.763	1043.09
787.768	1000.18
786.773	979.893
785.778	1057.59
784.783	1049.86
783.787	1097.38
782.792	1092.16
781.796	1129.62
780.8	1194.66
779.803	1259.69
778.807	1254.44
777.81	1311.91
776.813	1243.95
775.816	1306.41
774.819	1235.98
773.822	1153.04
772.824	1167.86
771.827	1064.92
770.829	1097.29
769.831	1057.01
768.832	1031.78
767.834	1059.13
766.835	1001.36
765.836	1038.72
764.837	1008.5
763.838	945.768
762.839	1013.14
761.839	992.944
760.84	985.261
759.84	1000.08
758.84	1022.4
757.839	1029.71
756.839	1042.01
755.838	1019.34
754.837	1074.11
753.836	1003.98
752.835	1081.21
751.834	1095.99
750.832	1258.03
749.83	1597.21
748.828	1941.26
747.826	1968.34
746.824	1935.56
745.822	1611.01
744.819	1413.74
743.816	1480.79
742.813	1413.22
741.81	1522.61
740.806	1462.54
739.803	1372.59
738.799	1210.45
737.795	1140.5
736.791	1070.58
735.787	998.196
734.782	1070.19
733.778	1062.53
732.773	1034.97
731.768	1054.68
730.762	1004.74
729.757	1009.53
728.751	974.544
727.746	956.966
726.74	897.147
725.733	964.07
724.727	978.799
723.721	958.75
722.714	956.091
721.707	1037.85
720.7	985.53
719.693	1062.29
718.685	965.317
717.678	1049.5
716.67	920.312
715.662	1016.87
714.654	974.529
713.645	989.226
712.637	1046.06
711.628	986.386
710.619	961.426
709.61	1045.48
708.601	1060.15
707.591	1069.87
706.582	1089.48
705.572	1074.42
704.562	1029.67
703.551	1051.76
702.541	1096.1
701.531	1034.06
700.52	1033.87
699.509	1073.24
698.498	1065.63
697.486	1048.13
696.475	1033.11
695.463	1141.65
694.451	1094.5
693.439	1057.24
692.427	1192.88
691.414	1138.34
690.402	1194.91
689.389	1350.2
688.376	1396.85
687.363	1460.74
686.349	1640.57
685.336	1709.33
684.322	1871.78
683.308	1851.71
682.294	2014.08
681.28	2021.1
680.265	1789.09
679.251	1626.14
678.236	1256.33
677.221	1196.99
676.206	1122.9
675.19	1011.9
674.175	982.175
673.159	991.839
672.143	1033.49
671.127	1008.7
670.11	971.614
669.094	959.139
668.077	986.01
667.06	941.578
666.043	965.984
665.026	1012.5
664.008	958.258
662.991	970.365
661.973	980.011
660.955	928.261
659.936	987.017
658.918	940.194
657.899	944.929
656.881	964.387
655.862	942.128
654.843	959.126
653.823	961.402
652.804	961.226
651.784	975.759
650.764	892.238
649.744	909.229
648.724	926.214
647.703	987.29
646.683	896.48
645.662	979.58
644.641	1050.41
643.619	976.771
642.598	1003.51
641.576	1069.4
640.555	1005.59
639.533	976.052
638.511	975.872
637.488	914.559
636.466	980.402
635.443	948.444
634.42	938.493
633.397	926.103
632.374	938.148
631.35	918.434
630.326	954.897
629.303	915.653
628.279	949.663
627.254	978.778
626.23	939.551
625.205	919.858
624.18	929.447
623.155	948.788
622.13	999.823
621.105	965.505
620.079	926.324
619.054	928.59
618.028	899.177
617.002	952.611
615.975	957.307
614.949	927.905
613.922	942.344
612.895	968.95
611.868	954.167
610.841	978.327
609.813	983.013
608.786	904.984
607.758	965.624
606.73	967.878
605.702	906.914
604.673	884.868
603.645	928.454
602.616	911.272
601.587	969.414
600.558	978.952
599.528	986.057
598.499	1083.01
597.469	990.549
596.439	1036.49
595.409	1058.14
594.379	1026.4
593.348	1018.93
592.318	970.229
591.287	996.726
590.256	1015.94
589.224	1006.05
588.193	1013.14
587.161	993.566
586.129	911.005
585.097	954.44
584.065	983.327
583.033	934.715
582	927.279
580.967	958.576
579.935	897.893
578.901	907.406
577.868	929.012
576.834	907.071
575.801	957.689
574.767	950.258
573.733	930.742
572.698	954.741
571.664	920.731
570.629	932.642
569.594	966.289
568.559	871.915
567.524	893.487
566.488	905.393
565.453	900.398
564.417	946.087
563.381	938.673
562.345	969.863
561.308	976.92
560.272	904.388
559.235	937.978
558.198	894.41
557.161	947.272
556.123	973.605
555.086	956.559
554.048	884.111
553.01	927.301
551.972	898.232
550.933	936.588
549.895	929.193
548.856	900.139
547.817	907.191
546.778	955.141
545.739	904.45
544.699	901.877
543.66	887.282
542.62	966.453
541.58	942.238
540.539	898.805
539.499	982.735
538.458	867.241
537.417	905.51
536.376	905.342
535.335	885.966
534.294	885.802
533.252	904.838
532.21	931.067
531.168	858.918
530.126	865.954
529.084	887.379
528.041	911.193
526.998	906.228
525.955	930.03
524.912	932.254
523.869	941.665
522.825	895.973
521.782	929.339
520.738	924.377
519.693	940.966
518.649	914.458
517.605	873.6
516.56	863.866
515.515	890.023
514.47	911.387
513.425	880.126
512.379	946.916
511.333	913.269
510.287	939.393
509.241	893.811
508.195	893.645
507.149	929.313
506.102	914.809
505.055	960.013
504.008	935.958
502.961	885.653
501.913	835.366
500.866	902.027
499.818	913.789
498.77	882.608
497.722	934.914
496.673	896.587
495.625	884.5
494.576	974.914
493.527	977.116
492.478	926.896
491.428	879.077
490.379	964.661
489.329	921.615
488.279	895.253
487.229	1023.64
486.178	1104.37
485.128	1154.14
484.077	1253.85
483.026	1163.22
481.975	1098.79
480.923	1062.92
479.872	972.375
478.82	908.015
477.768	895.963
476.716	921.933
475.664	871.872
474.611	885.961
473.558	949.916
472.506	890.38
471.452	904.457
470.399	828.338
469.346	906.493
468.292	892.089
467.238	870.573
466.184	837.207
465.13	924.787
464.075	934.098
463.02	881.775
461.966	907.68
460.91	921.728
459.855	931.032
458.8	921.384
457.744	895.162
456.688	947.085
455.632	942.173
454.576	892.294
453.519	903.96
452.463	927.45
451.406	901.257
450.349	915.279
449.292	908.014
448.234	926.758
447.176	940.767
446.119	912.232
445.061	930.964
444.002	930.79
442.944	951.874
441.885	909.189
440.826	944.435
439.767	993.832
438.708	903.959
437.649	920.308
436.589	995.635
435.529	908.17
434.469	964.603
433.409	877.176
432.349	921.806
431.288	949.919
430.227	888.468
429.166	926.002
428.105	862.222
427.044	939.787
425.982	984.355
424.92	892.346
423.858	901.596
422.796	915.548
421.734	931.849
420.671	929.322
419.608	971.489
418.545	952.493
417.482	957.017
416.419	968.593
415.355	916.7
414.291	867.177
413.227	930.455
412.163	906.789
411.099	925.409
410.034	861.831
408.969	913.323
407.904	946.016
406.839	920.022
405.774	929.236
404.708	929.062
403.642	896.048
402.576	877.118
401.51	951.988
400.444	1019.8
399.377	970.382
398.31	988.948
397.243	986.42
396.176	927.67
395.109	981.366
394.041	929.664
392.973	938.855
391.905	917.611
390.837	940.843
389.769	943.006
388.7	907.737
387.631	916.923
386.562	923.767
385.493	937.623
384.424	949.136
383.354	937.271
382.284	951.116
381.214	918.228
380.144	1002.15
379.074	983.279
378.003	920.046
376.932	933.881
375.861	973.389
374.79	931.197
373.719	947.356
372.647	998.503
371.575	1019.31
370.503	949.154
369.431	962.966
368.359	974.441
367.286	988.243
366.213	953.102
365.14	969.232
364.067	976.038
362.994	975.855
361.92	982.657
360.846	994.113
359.772	982.288
358.698	991.412
357.624	947.016
356.549	911.943
355.474	932.705
354.399	988.342
353.324	1011.41
352.248	983.321
351.173	987.784
350.097	1057.31
349.021	992.059
347.945	1038.33
346.868	1028.85
345.791	1044.91
344.715	1023.82
343.638	1039.87
342.56	1032.71
341.483	1000.03
340.405	1009.13
339.327	1032.13
338.249	1024.98
337.171	996.963
336.092	1038.5
335.014	998.906
333.935	1042.74
332.856	1021.7
331.777	1028.45
330.697	1028.26
329.617	1032.7
328.537	1023.24
327.457	995.275
326.377	995.087
325.297	1041.17
324.216	925.314
323.135	962.145
322.054	966.589
320.972	996.462
319.891	1005.52
318.809	1037.69
317.727	993.588
316.645	984.16
315.563	1020.93
314.48	1002.26
313.397	955.896
312.315	990.343
311.231	1010.93
310.148	1038.43
309.064	982.861
307.981	936.541
306.897	1024
305.812	1000.75
304.728	1014.4
303.643	928.919
302.559	1016.32
301.474	1011.52
300.388	1025.15
299.303	1043.38
298.217	990.219
297.132	1070.62
296.046	1033.58
294.959	1035.69
293.873	1049.3
292.786	1007.69
291.699	1078.81
290.612	1025.71
289.525	1105.99
288.438	986.239
287.35	1103.28
286.262	1043.32
285.174	1020.14
284.086	1001.57
282.997	992.198
281.909	1012.68
280.82	996.414
279.731	1078.86
278.641	1062.59
277.552	1066.98
276.462	1041.54
275.372	1050.52
274.282	1043.44
273.192	1022.61
272.101	1008.66
271.01	1077.23
269.919	1074.74
268.828	989.761
267.737	1042.26
266.645	1053.51
265.553	1179.25
264.461	1094.32
263.369	1153.63
262.277	1183.16
261.184	1176.07
260.091	1251.34
258.998	1262.54
257.905	1223.43
256.812	1252.92
255.718	1202.39
254.624	1154.17
253.53	1057.98
252.436	1053.21
251.341	1110.11
250.247	1089.35
249.152	1082.29
248.057	1086.65
246.961	1077.32
245.866	1052.01
244.77	1099.73
243.674	1129.17
242.578	1110.71
241.482	1089.98
240.385	1037.34
239.288	1098.68
238.191	1043.78
237.094	1095.99
235.997	1136.79
234.899	1188.96
233.801	1179.62
232.703	1149.8
231.605	1151.86
230.507	1101.57
229.408	1146.87
228.309	1123.9
227.21	1114.59
226.111	1100.73
225.011	1073.24
223.912	1138.96
222.812	1129.66
221.712	1138.53
220.611	1158.76
219.511	1076.76
218.41	1153.78
217.309	1121.77
216.208	1164.7
215.107	1107.73
214.005	1157.44
212.903	1202.61
211.801	1122.98
210.699	1195.34
209.597	1142.96
208.494	1169.95
207.391	1149.33
206.288	1135.51
205.185	1162.48
204.082	1191.72
202.978	1164.31
201.874	1170.88
200.77	1197.83
199.666	1154.59
198.561	1278.86
197.456	1131.52
196.352	1151.67
195.246	1187.64
194.141	1214.56
193.036	1169.1
191.93	1234.44
190.824	1211.6
189.718	1209.11
188.611	1186.29
187.505	1167.99
186.398	1210.68
185.291	1203.68
184.184	1185.39
183.076	1173.87
181.968	1114.97
180.861	1191.48
179.752	1229.61
178.644	1224.86
177.536	1258.46
176.427	1262.73
175.318	1294.05
174.209	1273.52
173.1	1309.33
171.99	1218.96
170.88	1293.06
169.77	1223
168.66	1236.27
167.55	1344.11
166.439	1283.07
165.328	1307.59
164.217	1188.08
163.106	1221.6
161.994	1313.59
160.883	1270.61
159.771	1306.34
158.659	1292.6
157.547	1310.34
156.434	1292.11
155.321	1305.34
154.208	1224.23
153.095	1268.91
151.982	1304.6
150.868	1326.8
149.754	1333.28
148.64	1303.85
147.526	1281.16
146.412	1267.46
145.297	1343.47
144.182	1287.16
143.067	1333.99
141.952	1409.95
140.836	1290.9
139.721	1270.49
138.605	1294.89
137.489	1312.56
136.372	1350.38
135.256	1318.78
134.139	1302.86
133.022	1298.13
131.905	1398.58
130.787	1317.77
129.67	1371.2
128.552	1408.96
127.434	1446.7
126.316	1415.13
125.197	1455.09
124.078	1430.23
122.959	1400.91
121.84	1331.39
120.721	1431.64
119.601	1415.74
118.482	1448.96
117.362	1397.34
116.241	1450.64
115.121	1472.67
114	1503.62
112.88	1472.11
111.758	1540.96
110.637	1473.77
109.516	1629.54
108.394	1564.59
107.272	1504.13
106.15	1530.57
105.028	1516.91
103.905	1554.48
102.782	1687.78
101.659	1747.57
100.536	1749.46
