3201.15	12.6335
3200.56	25.267
3199.97	42.1053
3199.37	25.2594
3198.78	12.6278
3198.19	16.8345
3197.59	-8.41598
3197	8.41471
3196.4	25.2403
3195.81	50.473
3195.21	4.20545
3194.62	21.0241
3194.03	12.6125
3193.43	12.6106
3192.84	16.8116
3192.24	12.6068
3191.65	12.6049
3191.05	0
3190.46	0
3189.86	29.3981
3189.26	25.1946
3188.67	4.19846
3188.07	25.187
3187.48	12.5916
3186.88	25.1793
3186.29	4.19592
3185.69	20.9764
3185.09	-4.19465
3184.5	25.1641
3183.9	25.1603
3183.31	33.542
3182.71	4.19212
3182.11	12.5744
3181.52	33.5268
3180.92	4.19022
3180.32	46.0854
3179.73	-8.3779
3179.13	-4.18831
3178.53	29.3138
3177.94	16.7482
3177.34	16.7457
3176.74	29.3005
3176.14	25.1109
3175.55	4.18451
3174.95	0
3174.35	8.36649
3173.75	0
3173.16	4.18198
3172.56	0
3171.96	8.36143
3171.36	12.5402
3170.76	4.17945
3170.17	16.7153
3169.57	-8.35637
3168.97	12.5327
3168.37	8.35384
3167.77	12.5289
3167.17	4.17565
3166.57	29.2252
3165.98	25.0463
3165.38	25.0425
3164.78	16.6925
3164.18	8.34499
3163.58	4.17186
3162.98	4.17123
3162.38	16.6824
3161.78	33.3597
3161.18	8.33867
3160.58	12.5061
3159.98	37.5126
3159.38	20.8372
3158.78	33.3345
3158.18	16.6647
3157.58	20.8277
3156.98	29.1544
3156.38	24.9857
3155.78	33.3092
3155.18	16.6521
3154.58	29.1367
3153.98	-4.16176
3153.38	37.4501
3152.78	20.8025
3152.18	33.2789
3151.57	20.7962
3150.97	4.1586
3150.37	4.15797
3149.77	4.15734
3149.17	29.097
3148.57	16.6243
3147.97	16.6218
3147.36	12.4645
3146.76	16.6168
3146.16	4.15356
3145.56	37.3764
3144.96	-4.1523
3144.35	24.91
3143.75	16.6042
3143.15	0
3142.55	29.0485
3141.94	4.14915
3141.34	16.5941
3140.74	4.14789
3140.14	29.0309
3139.53	4.14664
3138.93	33.1681
3138.33	12.4361
3137.72	37.3027
3137.12	12.4324
3136.52	41.4349
3135.91	8.28572
3135.31	16.5689
3134.71	12.4248
3134.1	20.7049
3133.5	16.5614
3132.9	24.8383
3132.29	-8.27818
3131.69	20.6923
3131.08	16.5513
3130.48	49.6464
3129.87	33.0926
3129.27	0
3128.67	12.406
3128.06	16.5388
3127.46	37.2066
3126.85	24.8006
3126.25	20.664
3125.64	16.5287
3125.04	24.7893
3124.43	4.13092
3123.83	20.6515
3123.22	12.389
3122.62	16.5162
3122.01	20.6421
3121.4	4.12779
3120.8	28.8901
3120.19	4.12653
3119.59	16.5036
3118.98	8.25055
3118.37	24.7479
3117.77	8.24805
3117.16	20.617
3116.56	16.4911
3115.95	28.855
3115.34	12.3645
3114.74	12.3627
3114.13	4.12026
3113.52	8.23927
3112.92	28.8331
3112.31	16.4735
3111.7	53.5308
3111.09	12.3514
3110.49	12.3495
3109.88	28.8111
3109.27	41.1525
3108.66	24.6878
3108.06	0
3107.45	12.3401
3106.84	32.902
3106.23	12.3364
3105.62	8.22299
3105.02	28.7761
3104.41	12.3307
3103.8	12.3289
3103.19	0
3102.58	16.4335
3101.97	0
3101.37	4.10712
3100.76	36.9584
3100.15	0
3099.54	12.3157
3098.93	28.7323
3098.32	20.52
3097.71	32.827
3097.1	12.3082
3096.49	8.20424
3095.88	49.2179
3095.27	45.1096
3094.66	20.5012
3094.05	20.4981
3093.44	12.297
3092.83	24.5902
3092.22	32.782
3091.61	-8.19425
3091	16.386
3090.39	36.8629
3089.78	24.5715
3089.17	8.18926
3088.56	16.376
3087.95	-12.2801
3087.34	16.371
3086.73	45.0135
3086.12	20.4576
3085.51	20.4544
3084.9	16.3611
3084.28	44.986
3083.67	16.3561
3083.06	24.5304
3082.45	28.6144
3081.84	20.4357
3081.23	40.8652
3080.61	40.859
3080	16.3411
3079.39	-4.08465
3078.78	-4.08403
3078.17	44.9175
3077.55	12.2484
3076.94	20.4108
3076.33	12.2446
3075.72	24.4855
3075.1	16.3212
3074.49	32.6374
3073.88	44.8696
3073.27	12.2353
3072.65	28.5447
3072.04	8.15437
3071.43	40.7656
3070.81	20.3797
3070.2	44.8285
3069.59	36.6723
3068.97	12.2222
3068.36	8.14691
3067.74	20.3642
3067.13	4.07221
3066.52	36.6443
3065.9	16.2839
3065.29	28.4924
3064.67	4.06973
3064.06	24.4146
3063.44	32.5479
3062.83	8.13572
3062.22	0
3061.6	16.2665
3060.99	40.66
3060.37	36.5884
3059.76	36.5828
3059.14	12.1924
3058.53	52.8257
3057.91	24.3774
3057.29	40.6227
3056.68	0
3056.06	20.3052
3055.45	16.2417
3054.83	12.1794
3054.22	16.2367
3053.6	12.1757
3052.98	28.4055
3052.37	32.4585
3051.75	32.4535
3051.14	24.3364
3050.52	28.3882
3049.9	0
3049.29	8.10843
3048.67	32.4288
3048.05	24.3178
3047.44	-4.05235
3046.82	28.3621
3046.2	16.2045
3045.58	12.1515
3044.97	4.04988
3044.35	12.1478
3043.73	32.3891
3043.11	36.4322
3042.5	40.474
3041.88	28.3275
3041.26	24.277
3040.64	24.2733
3040.03	8.08985
3039.41	24.2658
3038.79	48.5243
3038.17	0
3037.55	24.2547
3036.93	44.4602
3036.31	24.2473
3035.7	0
3035.08	64.6397
3034.46	32.3149
3033.84	20.1937
3033.22	52.4956
3032.6	16.15
3031.98	20.1844
3031.36	20.1814
3030.74	24.2139
3030.12	52.4555
3029.5	44.3786
3028.88	48.4056
3028.26	56.4645
3027.64	44.3582
3027.02	24.1917
3026.4	20.1567
3025.78	40.3071
3025.16	28.2107
3024.54	28.2063
3023.92	12.0866
3023.3	44.3107
3022.68	36.2486
3022.06	20.1351
3021.44	8.05279
3020.82	8.05155
3020.2	16.1006
3019.58	28.1718
3018.95	52.3111
3018.33	36.2098
3017.71	44.2496
3017.09	12.0662
3016.47	28.1502
3015.85	36.1876
3015.22	24.1214
3014.6	32.1569
3013.98	44.209
3013.36	36.1654
3012.74	32.1421
3012.11	12.0514
3011.49	28.1157
3010.87	36.1433
3010.25	44.1683
3009.62	40.1469
3009	20.0704
3008.38	36.1211
3007.76	24.077
3007.13	40.1223
3006.51	8.02322
3005.89	24.066
3005.26	44.1142
3004.64	40.0976
3004.02	40.0915
3003.39	8.01707
3002.77	44.0871
3002.14	44.0804
3001.52	64.107
3000.9	20.0304
3000.27	56.0765
2999.65	56.0678
2999.02	44.0466
2998.4	32.0289
2997.77	40.03
2997.15	16.0096
2996.52	36.016
2995.9	52.0151
2995.28	32.0044
2994.65	39.9993
2994.03	55.9905
2993.4	27.9909
2992.77	35.9828
2992.15	43.9722
2991.52	59.9529
2990.9	71.9325
2990.27	51.9433
2989.65	67.9154
2989.02	55.9217
2988.39	59.9069
2987.77	63.8909
2987.14	19.9628
2986.52	35.9276
2985.89	63.8615
2985.26	55.8702
2984.64	59.8517
2984.01	67.8216
2983.38	75.7889
2982.76	75.7773
2982.13	51.8396
2981.5	79.741
2980.88	67.7695
2980.25	67.7591
2979.62	111.586
2978.99	71.7228
2978.37	63.7438
2977.74	67.7174
2977.11	51.7759
2976.48	51.768
2975.86	67.6862
2975.23	67.6758
2974.6	63.6851
2973.97	75.6144
2973.34	55.7073
2972.71	63.6557
2972.09	67.6238
2971.46	63.6361
2970.83	59.6497
2970.2	47.7124
2969.57	55.6559
2968.94	95.3955
2968.31	67.5614
2967.68	51.6567
2967.05	75.4866
2966.43	47.6684
2965.8	71.4916
2965.17	43.6826
2964.54	59.558
2963.91	87.3383
2963.28	63.509
2962.65	59.5305
2962.02	75.3937
2961.39	75.3821
2960.76	27.7681
2960.13	59.4939
2959.5	51.5534
2958.87	67.4056
2958.23	95.1462
2957.6	87.204
2956.97	39.6321
2956.34	71.3267
2955.71	51.5058
2955.08	67.3434
2954.45	59.4115
2953.82	55.4422
2953.19	67.3123
2952.55	98.9734
2951.92	55.4166
2951.29	47.4926
2950.66	98.9277
2950.03	67.2605
2949.4	90.9854
2948.76	90.9714
2948.13	51.4107
2947.5	71.1731
2946.87	71.1621
2946.23	55.3398
2945.6	51.379
2944.97	67.1776
2944.34	75.0693
2943.7	98.7602
2943.07	82.9458
2942.44	106.628
2941.8	102.663
2941.17	75.0115
2940.54	82.8946
2939.9	106.562
2939.27	90.7614
2938.64	78.9108
2938	90.7334
2937.37	59.1648
2936.74	94.6491
2936.1	86.7483
2935.47	43.3675
2934.83	110.373
2934.2	94.5907
2933.57	74.8728
2932.93	86.6814
2932.3	82.7286
2931.66	90.5935
2931.03	90.5796
2930.39	82.6903
2929.76	82.6776
2929.12	90.5377
2928.49	86.5879
2927.85	90.5097
2927.22	66.8882
2926.58	121.954
2925.94	86.5344
2925.31	82.5883
2924.67	94.3721
2924.04	86.4944
2923.4	74.6882
2922.77	51.0945
2922.13	94.3138
2921.49	55.0079
2920.86	70.7135
2920.22	82.4864
2919.58	78.5463
2918.95	106.021
2918.31	66.7438
2917.67	105.988
2917.04	86.3476
2916.4	117.729
2915.76	66.7025
2915.12	90.2307
2914.49	90.2167
2913.85	74.5154
2913.21	90.1889
2912.57	74.4923
2911.94	74.4808
2911.3	105.825
2910.66	66.6201
2910.02	78.3645
2909.38	94.0229
2908.75	66.5893
2908.11	90.0774
2907.47	46.9897
2906.83	66.5584
2906.19	46.9751
2905.55	54.7959
2904.92	50.874
2904.28	78.2556
2903.64	70.4191
2903	66.4967
2902.36	97.7741
2901.72	43.014
2901.08	89.9244
2900.44	89.9105
2899.8	109.439
2899.16	82.0668
2898.52	70.3321
2897.88	82.0414
2897.24	89.841
2896.6	31.2442
2895.96	70.2886
2895.32	70.2777
2894.68	74.1705
2894.04	97.5777
2893.4	81.9526
2892.76	50.7247
2892.12	93.6311
2891.48	85.8153
2890.84	54.6013
2890.19	77.9897
2889.55	70.1799
2888.91	101.355
2888.27	62.3628
2887.63	89.6327
2886.99	97.4117
2886.35	77.9173
2885.7	70.1147
2885.06	70.1039
2884.42	73.9871
2883.78	66.1887
2883.14	58.3928
2882.49	85.6295
2881.85	81.7246
2881.21	89.494
2880.57	89.4801
2879.92	62.2374
2879.28	93.3416
2878.64	89.4385
2877.99	62.2085
2877.35	42.7617
2876.71	77.7365
2876.07	46.6347
2875.42	54.3987
2874.78	23.3101
2874.13	77.6883
2873.49	73.7925
2872.85	34.9489
2872.2	50.4739
2871.56	77.6402
2870.92	65.9839
2870.27	54.3313
2869.63	62.0833
2868.98	73.7125
2868.34	58.185
2867.69	69.8112
2867.05	42.6558
2866.4	50.4036
2865.76	34.8894
2865.11	46.5119
2864.47	85.2587
2863.82	73.6211
2863.18	50.3645
2862.53	65.8511
2861.89	46.4759
2861.24	34.8515
2860.6	92.9229
2859.95	46.4543
2859.3	54.1882
2858.66	54.1798
2858.01	46.4326
2857.37	61.9006
2856.72	54.1546
2856.07	38.6759
2855.43	38.6699
2854.78	46.3966
2854.13	57.9868
2853.49	38.6519
2852.84	50.2396
2852.19	50.2318
2851.55	42.4972
2850.9	50.2162
2850.25	65.6572
2849.6	46.339
2848.96	38.6099
2848.31	50.185
2847.66	69.4762
2847.01	46.3103
2846.37	42.4445
2845.72	61.7278
2845.07	50.1461
2844.42	57.8519
2843.77	26.9934
2843.12	69.4007
2842.48	30.84
2841.83	46.2528
2841.18	50.0994
2840.53	34.6788
2839.88	38.526
2839.23	57.78
2838.58	42.3654
2837.93	73.1653
2837.28	53.9029
2836.63	34.6465
2835.99	50.0371
2835.34	61.5746
2834.69	38.4781
2834.04	46.1666
2833.39	65.3925
2832.74	30.7681
2832.09	34.6088
2831.44	34.6034
2830.79	15.3769
2830.13	42.2799
2829.48	7.68606
2828.83	30.7395
2828.18	30.7347
2827.53	34.5711
2826.88	26.8845
2826.23	30.7203
2825.58	42.2339
2824.93	38.3885
2824.28	30.706
2823.62	30.7012
2822.97	7.67411
2822.32	49.874
2821.67	53.7021
2821.02	46.0232
2820.37	34.512
2819.71	49.8429
2819.06	46.0017
2818.41	34.4959
2817.76	26.826
2817.11	26.8218
2816.45	49.8041
2815.8	30.6439
2815.15	61.2783
2814.49	38.293
2813.84	30.6296
2813.19	42.1092
2812.53	61.2402
2811.88	42.0961
2811.23	30.6105
2810.57	42.0829
2809.92	34.4261
2809.27	38.2453
2808.61	38.2394
2807.96	38.2334
2807.31	19.1137
2806.65	3.82215
2806	42.0371
2805.34	42.0305
2804.69	34.3833
2804.03	22.9186
2803.38	26.7342
2802.73	38.1858
2802.07	38.1798
2801.42	49.626
2800.76	49.6183
2800.11	26.7134
2799.45	34.3404
2798.79	61.0401
2798.14	26.7009
2797.48	38.1382
2796.83	34.319
2796.17	38.1263
2795.52	34.3083
2794.86	57.1716
2794.2	34.2976
2793.55	60.964
2792.89	41.9062
2792.24	30.4725
2791.58	53.3186
2790.92	45.6945
2790.27	49.4946
2789.61	41.8735
2788.95	41.867
2788.3	49.4715
2787.64	38.049
2786.98	34.2388
2786.32	22.8223
2785.67	41.8344
2785.01	30.4202
2784.35	49.4252
2783.69	49.4175
2783.04	60.812
2782.38	26.6011
2781.72	60.793
2781.06	30.3918
2780.4	49.3789
2779.75	53.169
2779.09	45.5663
2778.43	41.7626
2777.77	49.3481
2777.11	49.3404
2776.45	22.7689
2775.79	34.1481
2775.14	30.3491
2774.48	37.9304
2773.82	49.3019
2773.16	26.543
2772.5	18.9563
2771.84	53.0694
2771.18	87.1719
2770.52	56.8423
2769.86	53.0446
2769.2	49.248
2768.54	37.8771
2767.88	49.2326
2767.22	45.4384
2766.56	37.8594
2765.9	26.4974
2765.24	41.6323
2764.58	45.41
2763.92	22.7014
2763.26	60.5277
2762.6	37.8239
2761.93	34.0362
2761.27	71.8429
2760.61	52.9286
2759.95	56.7004
2759.29	34.0149
2758.63	45.3461
2757.97	45.339
2757.3	30.2213
2756.64	30.2165
2755.98	49.0942
2755.32	52.8624
2754.66	49.0789
2753.99	56.6206
2753.33	49.0635
2752.67	52.8293
2752.01	37.7293
2751.34	52.8128
2750.68	56.5763
2750.02	33.9405
2749.35	37.7057
2748.69	41.4698
2748.03	60.3103
2747.36	30.1504
2746.7	37.6821
2746.04	41.4439
2745.37	48.9714
2744.71	60.2631
2744.05	41.4244
2743.38	45.1832
2742.72	41.4114
2742.05	71.5176
2741.39	48.9254
2740.73	37.6291
2740.06	26.3362
2739.4	60.1876
2738.73	33.8503
2738.07	45.1266
2737.4	67.6793
2736.74	60.1499
2736.07	56.3817
2735.41	33.8237
2734.74	45.0913
2734.08	30.0561
2733.41	48.8336
2732.74	63.8493
2732.08	26.2868
2731.41	52.5653
2730.75	48.803
2730.08	26.2744
2729.42	33.7761
2728.75	82.5508
2728.08	56.2758
2727.42	52.5158
2726.75	33.7549
2726.08	74.9991
2725.42	59.9899
2724.75	59.9805
2724.08	52.4747
2723.41	22.4856
2722.75	18.7351
2722.08	41.2107
2721.41	56.1876
2720.75	63.6693
2720.08	48.6807
2719.41	26.2086
2718.74	59.8959
2718.07	14.9716
2717.41	52.3924
2716.74	44.9008
2716.07	56.1171
2715.4	41.1461
2714.73	63.5795
2714.06	29.9151
2713.4	33.6492
2712.73	37.3821
2712.06	78.4901
2711.39	63.5296
2710.72	26.1551
2710.05	67.2455
2709.38	44.8233
2708.71	37.3469
2708.04	70.9479
2707.37	33.6016
2706.7	48.5281
2706.03	22.3941
2705.36	52.2446
2704.69	74.6234
2704.02	52.2282
2703.35	26.11
2702.68	41.0235
2702.01	48.4748
2701.34	48.4671
2700.67	67.0978
2700	59.6331
2699.33	33.5384
2698.66	33.5331
2697.99	37.2531
2697.32	74.4946
2696.65	63.3104
2695.97	63.3005
2695.3	44.6757
2694.63	40.9463
2693.96	55.827
2693.29	40.9334
2692.62	29.7651
2691.94	40.9205
2691.27	29.7557
2690.6	59.502
2689.93	33.4646
2689.25	29.7417
2688.58	66.9082
2687.91	59.4646
2687.24	44.5915
2686.56	78.0228
2685.89	40.8626
2685.22	51.9988
2684.54	48.277
2683.87	48.2694
2683.2	74.249
2682.52	48.2542
2681.85	51.9579
2681.18	48.2391
2680.5	22.2607
2679.83	51.9334
2679.15	51.9252
2678.48	55.6254
2677.81	48.2011
2677.13	29.6576
2676.46	63.0124
2675.78	51.8844
2675.11	33.349
2674.43	55.5729
2673.76	51.8599
2673.08	48.148
2672.41	48.1404
2671.73	51.8354
2671.06	55.5292
2670.38	40.715
2669.71	55.5117
2669.03	40.7022
2668.36	55.4942
2667.68	48.0874
2667	33.286
2666.33	33.2808
2665.65	88.7348
2664.97	44.3604
2664.3	66.5301
2663.62	44.3464
2662.95	51.7293
2662.27	40.6381
2661.59	55.4068
2660.92	51.7049
2660.24	62.7746
2659.56	33.2284
2658.88	40.6061
2658.21	84.8902
2657.53	70.1156
2656.85	47.9663
2656.17	55.337
2655.5	70.0825
2654.82	14.7519
2654.14	66.373
2653.46	55.3021
2652.78	77.4107
2652.11	44.2277
2651.43	25.7954
2650.75	66.3207
2650.07	40.5229
2649.39	66.2998
2648.71	36.8274
2648.03	47.8681
2647.35	33.1342
2646.68	40.491
2646	36.8042
2645.32	47.8378
2644.64	33.1133
2643.96	66.2161
2643.28	40.459
2642.6	55.1627
2641.92	51.477
2641.24	51.4689
2640.56	55.1366
2639.88	62.4782
2639.2	47.7699
2638.52	33.0663
2637.84	77.1425
2637.16	62.4388
2636.47	40.3952
2635.79	58.7474
2635.11	66.0804
2634.43	29.3644
2633.75	66.0595
2633.07	40.3633
2632.39	58.701
2631.71	77.0329
2631.02	58.6824
2630.34	66.0073
2629.66	58.6639
2628.98	69.6524
2628.3	58.6454
2627.61	25.6533
2626.93	62.291
2626.25	36.636
2625.57	62.2713
2624.89	54.9366
2624.2	69.5754
2623.52	65.9031
2622.84	62.232
2622.15	54.9019
2621.47	32.9359
2620.79	73.1794
2620.1	29.2671
2619.42	58.525
2618.74	51.2013
2618.05	47.5365
2617.37	54.8411
2616.69	58.488
2616	51.1689
2615.32	43.8521
2614.63	76.729
2613.95	47.4914
2613.26	87.6626
2612.58	65.7365
2611.9	58.4232
2611.21	58.414
2610.53	62.055
2609.84	29.1978
2609.16	65.6846
2608.47	43.7828
2607.78	91.1997
2607.1	25.5319
2606.41	61.9961
2605.73	54.6938
2605.04	54.6852
2604.36	43.7412
2603.67	61.9569
2602.98	32.7955
2602.3	40.0771
2601.61	50.9991
2600.93	69.2021
2600.24	47.3413
2599.55	61.8981
2598.87	47.3263
2598.18	29.1193
2597.49	61.8687
2596.81	65.4976
2596.12	54.5727
2595.43	50.9264
2594.74	47.2814
2594.06	58.1832
2593.37	54.5381
2592.68	47.2589
2591.99	32.7125
2591.3	50.8781
2590.62	65.4043
2589.93	69.0269
2589.24	39.9566
2588.55	58.1095
2587.86	72.6254
2587.17	61.7218
2586.49	43.5614
2585.8	76.2204
2585.11	58.0634
2584.42	76.1962
2583.73	47.1616
2583.04	32.6452
2582.35	36.2666
2581.66	58.0174
2580.97	83.3868
2580.28	54.3741
2579.59	65.2386
2578.9	39.8617
2578.21	54.3482
2577.52	72.4528
2576.83	72.4413
2576.14	47.0794
2575.45	47.0719
2574.76	54.3051
2574.07	57.9163
2573.38	68.7646
2572.69	72.3724
2572	50.6526
2571.31	79.5843
2570.62	54.2534
2569.93	61.4775
2569.23	72.3149
2568.54	72.3035
2567.85	43.3752
2567.16	54.2104
2566.47	65.0421
2565.77	61.4189
2565.08	65.0215
2564.39	57.7877
2563.7	36.1116
2563.01	75.8222
2562.31	64.9802
2561.62	57.751
2560.93	61.3507
2560.24	64.9492
2559.54	68.5466
2558.85	75.75
2558.16	28.8526
2557.46	61.3019
2556.77	68.503
2556.08	64.8873
2555.38	64.877
2554.69	61.263
2553.99	46.8407
2553.3	61.2435
2552.61	68.4377
2551.91	64.8255
2551.22	61.2143
2550.52	86.4065
2549.83	53.9955
2549.13	46.7886
2548.44	46.7812
2547.75	61.1657
2547.05	57.5585
2546.36	43.162
2545.66	61.1365
2544.96	57.5311
2544.27	35.9512
2543.57	71.891
2542.88	75.4735
2542.18	57.4945
2541.49	86.228
2540.79	64.6607
2540.09	57.467
2539.4	64.6401
2538.7	61.0393
2538.01	50.2597
2537.31	89.7351
2536.61	50.2437
2535.92	64.5887
2535.22	53.8154
2534.52	50.2197
2533.83	57.3848
2533.13	103.993
2532.43	89.6352
2531.73	60.9422
2531.04	64.5168
2530.34	35.8369
2529.64	71.6625
2528.94	64.4859
2528.24	57.3117
2527.55	71.6282
2526.85	57.2935
2526.15	82.3462
2525.45	78.7534
2524.75	75.1617
2524.05	85.8854
2523.36	85.8717
2522.66	42.929
2521.96	75.1138
2521.26	57.2205
2520.56	92.9684
2519.86	50.052
2519.16	32.1711
2518.46	82.202
2517.76	57.1749
2517.06	67.8844
2516.36	71.4458
2515.66	92.8648
2514.96	99.9923
2514.26	85.694
2513.56	82.1103
2512.86	57.1111
2512.16	74.9464
2511.46	42.8197
2510.76	74.9225
2510.06	74.9105
2509.36	42.7992
2508.66	60.6225
2507.96	46.351
2507.25	67.733
2506.55	81.9794
2505.85	96.2214
2505.15	74.8269
2504.45	57.0019
2503.75	67.6789
2503.04	74.7911
2502.34	39.17
2501.64	67.6465
2500.94	71.1955
2500.24	81.8618
2499.53	74.7314
2498.83	56.9291
2498.13	78.2651
2497.43	64.0248
2496.72	60.4583
2496.02	56.8928
2495.32	78.2151
2494.61	63.984
2493.91	49.7574
2493.21	67.5171
2492.5	74.6122
2491.8	81.7051
2491.09	67.4847
2490.39	74.5764
2489.69	71.0138
2488.98	67.4524
2488.28	56.7929
2487.57	85.1758
2486.87	95.8074
2486.16	74.505
2485.46	102.871
2484.75	67.3877
2484.05	88.6539
2483.34	95.7309
2482.64	46.0853
2481.93	63.8002
2481.23	63.79
2480.52	77.9531
2479.82	88.5689
2479.11	67.3016
2478.41	67.2908
2477.7	84.9854
2476.99	102.674
2476.29	74.3384
2475.58	77.8659
2474.87	63.6983
2474.17	49.5352
2473.46	74.2909
2472.75	91.9645
2472.05	70.7306
2471.34	88.3991
2470.63	106.062
2469.93	84.836
2469.22	53.014
2468.51	74.2077
2467.8	67.1296
2467.1	84.7817
2466.39	74.1721
2465.68	70.6288
2464.97	60.0248
2464.26	77.6668
2463.56	56.4759
2462.85	84.7003
2462.14	95.2726
2461.43	88.2012
2460.72	91.7146
2460.01	49.3769
2459.3	67.0007
2458.59	84.6189
2457.89	88.1306
2457.18	49.3452
2456.47	70.4819
2455.76	63.4235
2455.05	73.9823
2454.34	56.3584
2453.63	84.5241
2452.92	63.3829
2452.21	77.4556
2451.5	91.5238
2450.79	84.4699
2450.08	49.2662
2449.37	73.8875
2448.66	94.983
2447.95	77.3812
2447.23	84.4023
2446.52	56.2592
2445.81	91.4065
2445.1	66.7863
2444.39	77.3192
2443.68	73.7928
2442.97	70.2676
2442.25	52.6922
2441.54	77.2696
2440.83	108.862
2440.12	84.267
2439.41	73.7218
2438.69	84.24
2437.98	84.2265
2437.27	87.7219
2436.56	101.741
2435.84	94.7092
2435.13	80.6653
2434.42	63.1192
2433.71	73.6273
2432.99	73.6155
2432.28	87.6234
2431.57	80.6006
2430.85	87.5953
2430.14	73.5682
2429.43	87.5671
2428.71	91.0552
2428	84.0375
2427.28	42.012
2426.57	94.5118
2425.85	80.4971
2425.14	90.9821
2424.43	111.96
2423.71	94.4511
2423	80.4454
2422.28	104.912
2421.57	87.4126
2420.85	73.4148
2420.14	80.3938
2419.42	83.8757
2418.71	80.3679
2417.99	76.8613
2417.27	66.3696
2416.56	59.3738
2415.84	101.268
2415.13	80.3034
2414.41	76.7996
2413.69	52.3549
2412.98	62.8158
2412.26	48.8489
2411.54	97.6821
2410.83	104.643
2410.11	115.088
2409.39	101.122
2408.68	97.6193
2407.96	80.1744
2407.24	87.1321
2406.52	76.6639
2405.81	90.5882
2405.09	90.5737
2404.37	73.1439
2403.65	118.404
2402.94	83.5661
2402.22	55.7018
2401.5	45.2504
2400.78	87.006
2400.06	80.0327
2399.34	83.4989
2398.63	52.1784
2397.91	79.994
2397.19	83.4586
2396.47	79.9683
2395.75	73.0028
2395.03	107.749
2394.31	76.4545
2393.59	104.239
2392.87	100.748
2392.15	79.8911
2391.43	90.2971
2390.71	69.4482
2389.99	90.2681
2389.27	72.8971
2388.55	83.2975
2387.83	111.045
2387.11	72.8619
2386.39	93.6645
2385.67	86.7124
2384.95	72.8267
2384.23	110.956
2383.51	104.005
2382.79	93.589
2382.06	97.0397
2381.34	62.3726
2380.62	93.5438
2379.9	90.0647
2379.18	69.2694
2378.46	103.887
2377.73	107.333
2377.01	100.392
2376.29	93.4534
2375.57	83.0563
2374.84	107.264
2374.12	83.0295
2373.4	69.1801
2372.68	76.0858
2371.95	82.9894
2371.23	79.5186
2370.51	110.617
2369.78	76.0368
2369.06	76.0245
2368.34	114.018
2367.61	93.2727
2366.89	62.1718
2366.16	72.522
2365.44	86.3218
2364.72	69.0463
2363.99	79.3905
2363.27	79.3777
2362.54	106.97
2361.82	86.2522
2361.09	86.2383
2360.37	117.265
2359.64	124.143
2358.92	103.436
2358.19	103.419
2357.47	96.509
2356.74	93.0472
2356.02	93.0322
2355.29	89.5721
2354.57	96.4467
2353.84	92.9871
2353.11	89.5287
2352.39	110.171
2351.66	82.6152
2350.94	99.8106
2350.21	65.3826
2349.48	89.4564
2348.76	86.0019
2348.03	106.625
2347.3	85.9741
2346.57	99.7139
2345.85	106.573
2345.12	72.1833
2344.39	85.9186
2343.67	72.1599
2342.94	120.247
2342.21	89.312
2341.48	99.6011
2340.75	82.4152
2340.03	120.169
2339.3	85.8214
2338.57	106.401
2337.84	102.952
2337.11	68.6238
2336.38	126.934
2335.65	106.333
2334.93	92.5972
2334.2	102.869
2333.47	95.9957
2332.74	92.5523
2332.01	109.674
2331.28	71.9618
2330.55	85.655
2329.82	123.323
2329.09	102.753
2328.36	71.9153
2327.63	85.5996
2326.9	85.5857
2326.17	85.5719
2325.44	95.825
2324.71	119.762
2323.98	92.3728
2323.25	99.1991
2322.51	136.804
2321.78	112.845
2321.05	95.732
2320.32	105.972
2319.59	99.1188
2318.86	112.772
2318.13	85.4196
2317.39	105.903
2316.66	99.0547
2315.93	78.5479
2315.2	99.0226
2314.47	126.319
2313.73	95.577
2313	98.9745
2312.27	112.608
2311.54	81.8834
2310.8	75.0476
2310.07	109.142
2309.34	112.535
2308.6	85.2399
2307.87	122.726
2307.14	88.6208
2306.4	105.646
2305.67	102.222
2304.94	109.019
2304.2	95.3759
2303.47	91.9547
2302.73	102.155
2302	102.139
2301.27	105.526
2300.53	95.2986
2299.8	119.104
2299.06	108.877
2298.33	108.86
2297.59	91.8355
2296.86	125.828
2296.12	105.407
2295.39	84.9915
2294.65	112.171
2293.91	91.761
2293.18	108.736
2292.44	108.718
2291.71	84.9225
2290.97	132.458
2290.23	95.0824
2289.5	98.4622
2288.76	115.42
2288.03	122.189
2287.29	125.563
2286.55	91.6122
2285.81	91.5973
2285.08	115.326
2284.34	115.307
2283.6	88.1619
2282.87	125.441
2282.13	111.861
2281.39	94.8973
2280.65	111.825
2279.92	121.971
2279.18	101.626
2278.44	74.5137
2277.7	84.6609
2276.96	108.348
2276.22	125.257
2275.49	111.698
2274.75	142.138
2274.01	98.1269
2273.27	111.644
2272.53	115.008
2271.79	84.551
2271.05	142.023
2270.31	128.476
2269.57	98.0313
2268.83	135.194
2268.09	87.8615
2267.35	84.4685
2266.61	145.262
2265.87	108.085
2265.13	111.444
2264.39	128.309
2263.65	97.9038
2262.91	104.639
2262.17	87.7473
2261.43	101.23
2260.69	118.083
2259.95	111.317
2259.21	114.672
2258.46	84.3038
2257.72	80.9185
2256.98	104.503
2256.24	138.191
2255.5	114.579
2254.76	128.038
2254.01	114.541
2253.27	104.418
2252.53	124.607
2251.79	111.118
2251.04	124.567
2250.3	100.984
2249.56	97.6016
2248.82	114.411
2248.07	111.028
2247.33	148.013
2246.59	127.808
2245.84	110.973
2245.1	114.318
2244.36	104.214
2243.61	114.28
2242.87	131.065
2242.12	107.523
2241.38	104.146
2240.64	137.719
2239.89	100.754
2239.15	141.032
2238.4	104.078
2237.66	97.3475
2236.91	120.826
2236.17	137.584
2235.42	147.628
2234.68	144.249
2233.93	117.393
2233.19	100.606
2232.44	114.001
2231.69	83.8109
2230.95	130.724
2230.2	140.756
2229.46	90.4715
2228.71	127.31
2227.96	117.24
2227.22	120.57
2226.47	113.853
2225.72	123.878
2224.98	103.773
2224.23	103.756
2223.48	113.779
2222.74	107.068
2221.99	117.087
2221.24	100.344
2220.49	107.016
2219.75	127.061
2219	103.638
2218.25	123.676
2217.5	126.998
2216.75	123.636
2216.01	120.275
2215.26	110.234
2214.51	130.255
2213.76	106.859
2213.01	106.841
2212.26	133.53
2211.51	113.482
2210.76	103.452
2210.02	123.455
2209.27	120.098
2208.52	150.098
2207.77	130.064
2207.02	120.039
2206.27	123.354
2205.52	130
2204.77	153.309
2204.02	116.629
2203.27	143.263
2202.52	133.246
2201.77	113.241
2201.01	149.853
2200.26	123.193
2199.51	129.83
2198.76	83.211
2198.01	113.148
2197.26	106.475
2196.51	139.726
2195.76	136.377
2195	126.377
2194.25	106.406
2193.5	129.661
2192.75	122.991
2192	149.56
2191.24	109.659
2190.49	136.221
2189.74	142.842
2188.99	136.176
2188.23	126.191
2187.48	112.89
2186.73	109.551
2185.97	152.683
2185.22	112.834
2184.47	122.77
2183.71	132.703
2182.96	152.583
2182.21	126.026
2181.45	109.426
2180.7	129.3
2179.94	122.65
2179.19	122.63
2178.44	142.492
2177.68	135.842
2176.93	122.569
2176.17	122.549
2175.42	122.529
2174.66	109.265
2173.91	105.936
2173.15	122.469
2172.4	109.211
2171.64	109.193
2170.88	129.025
2170.13	115.773
2169.37	109.14
2168.62	119.042
2167.86	138.859
2167.1	142.142
2166.35	122.288
2165.59	142.096
2164.83	105.728
2164.08	99.1041
2163.32	128.814
2162.56	122.188
2161.81	145.281
2161.05	132.052
2160.29	135.331
2159.53	115.508
2158.78	118.788
2158.02	131.966
2157.26	95.6594
2156.5	138.518
2155.75	131.901
2154.99	118.691
2154.23	141.747
2153.47	112.06
2152.71	154.882
2151.95	115.318
2151.19	131.771
2150.43	118.574
2149.68	148.194
2148.92	118.535
2148.16	154.729
2147.4	148.121
2146.64	134.932
2145.88	128.329
2145.12	121.728
2144.36	131.576
2143.6	147.999
2142.84	134.821
2142.08	128.224
2141.32	115.054
2140.56	105.175
2139.8	124.874
2139.03	160.996
2138.27	128.119
2137.51	144.52
2136.75	167.485
2135.99	108.355
2135.23	118.186
2134.47	105.037
2133.7	121.429
2132.94	150.94
2132.18	124.669
2131.42	141.05
2130.66	121.349
2129.89	111.491
2129.13	124.588
2128.37	124.567
2127.61	147.489
2126.84	117.972
2126.08	127.782
2125.32	150.693
2124.55	144.117
2123.79	134.269
2123.03	144.07
2122.26	130.951
2121.5	150.569
2120.74	160.362
2119.97	147.247
2119.21	140.68
2118.44	104.675
2117.68	117.739
2116.91	147.15
2116.15	120.97
2115.38	120.95
2114.62	166.688
2113.85	137.25
2113.09	153.564
2112.32	143.738
2111.56	146.981
2110.79	111.034
2110.03	127.341
2109.26	146.908
2108.5	140.356
2107.73	117.488
2106.96	123.995
2106.2	130.499
2105.43	146.787
2104.66	120.672
2103.9	120.652
2103.13	130.413
2102.36	133.651
2101.6	140.148
2100.83	172.712
2100.06	159.651
2099.3	127.048
2098.53	130.284
2097.76	117.237
2096.99	185.594
2096.22	136.731
2095.46	133.453
2094.69	159.467
2093.92	130.156
2093.15	133.387
2092.38	152.882
2091.61	120.334
2090.85	126.818
2090.08	149.556
2089.31	156.032
2088.54	156.006
2087.77	116.986
2087	126.713
2086.23	113.698
2085.46	146.16
2084.69	133.146
2083.92	149.358
2083.15	133.102
2082.38	152.555
2081.61	136.303
2080.84	165.484
2080.07	139.502
2079.3	165.429
2078.53	158.915
2077.76	126.463
2076.98	175.073
2076.21	155.595
2075.44	155.57
2074.67	139.341
2073.9	142.558
2073.13	126.338
2072.36	174.9
2071.58	155.441
2070.81	158.653
2070.04	155.39
2069.27	181.258
2068.49	135.921
2067.72	161.784
2066.95	122.936
2066.18	142.323
2065.4	145.534
2064.63	142.276
2063.86	181.049
2063.08	174.554
2062.31	151.901
2061.54	132.488
2060.76	177.698
2059.99	148.596
2059.21	145.341
2058.44	158.234
2057.67	171.123
2056.89	138.813
2056.12	142.018
2055.34	148.448
2054.57	151.651
2053.79	132.269
2053.02	148.375
2052.24	154.8
2051.47	151.55
2050.69	157.973
2049.92	138.606
2049.14	132.138
2048.36	148.228
2047.59	144.981
2046.81	164.285
2046.04	161.037
2045.26	173.891
2044.48	173.863
2043.71	131.985
2042.93	135.182
2042.15	167.34
2041.38	148.007
2040.6	154.417
2039.82	138.309
2039.04	160.797
2038.27	151.125
2037.49	151.1
2036.71	135.003
2035.93	154.263
2035.16	192.797
2034.38	154.212
2033.6	170.248
2032.82	160.585
2032.04	138.08
2031.26	150.899
2030.48	166.925
2029.71	170.107
2028.93	137.988
2028.15	154.008
2027.37	144.359
2026.59	189.239
2025.81	179.587
2025.03	179.557
2024.25	137.851
2023.47	195.524
2022.69	176.263
2021.91	169.825
2021.13	121.741
2020.35	156.956
2019.57	137.714
2018.79	144.096
2018.01	179.289
2017.23	147.249
2016.44	140.823
2015.66	163.2
2014.88	150.375
2014.1	198.334
2013.32	150.325
2012.54	185.477
2011.75	191.841
2010.97	153.447
2010.19	169.403
2009.41	182.158
2008.63	182.128
2007.84	140.567
2007.06	201.233
2006.28	150.101
2005.5	153.269
2004.71	181.977
2003.93	178.755
2003.15	178.725
2002.36	188.268
2001.58	169.094
2000.79	169.066
2000.01	194.553
1999.23	175.388
1998.44	191.3
1997.66	197.644
1996.87	156.177
1996.09	178.458
1995.3	162.497
1994.52	191.142
1993.74	181.554
1992.95	203.817
1992.17	206.967
1991.38	155.995
1990.59	187.8
1989.81	165.491
1989.02	181.373
1988.24	174.98
1987.45	184.494
1986.67	159.02
1985.88	187.613
1985.09	158.967
1984.31	222.517
1983.52	165.271
1982.73	174.777
1981.95	190.634
1981.16	200.132
1980.37	196.923
1979.59	149.255
1978.8	177.807
1978.01	165.079
1977.22	177.748
1976.43	222.147
1975.65	193.553
1974.86	209.384
1974.07	218.865
1973.28	193.457
1972.49	180.741
1971.71	199.733
1970.92	187.021
1970.13	167.974
1969.34	209.14
1968.55	209.105
1967.76	193.232
1966.97	190.032
1966.18	171.001
1965.39	202.634
1964.6	189.937
1963.81	158.255
1963.02	174.051
1962.23	196.171
1961.44	205.628
1960.65	211.92
1959.86	192.91
1959.07	170.744
1958.28	173.877
1957.49	192.814
1956.7	183.301
1955.91	208.549
1955.12	230.629
1954.32	170.574
1953.53	183.178
1952.74	202.094
1951.95	183.117
1951.16	179.93
1950.36	148.339
1949.57	176.715
1948.78	205.081
1947.99	167.192
1947.2	189.242
1946.4	182.904
1945.61	179.72
1944.82	185.995
1944.02	179.66
1943.23	195.387
1942.44	185.902
1941.64	166.969
1940.85	214.189
1940.06	211.004
1939.26	223.564
1938.47	204.637
1937.67	201.455
1936.88	217.157
1936.08	195.094
1935.29	191.916
1934.49	223.34
1933.7	179.271
1932.9	169.807
1932.11	204.364
1931.31	185.468
1930.52	213.724
1929.72	182.264
1928.93	210.511
1928.13	188.486
1927.34	207.3
1926.54	182.142
1925.74	216.65
1924.95	204.057
1924.15	185.19
1923.35	207.127
1922.56	222.781
1921.76	185.097
1920.96	216.433
1920.17	210.125
1919.37	206.954
1918.57	228.865
1917.77	213.154
1916.98	213.118
1916.18	247.552
1915.38	241.245
1914.58	197.349
1913.78	165.996
1912.99	184.757
1912.19	203.512
1911.39	241.043
1910.59	206.574
1909.79	194.022
1908.99	209.634
1908.19	193.957
1907.39	218.947
1906.59	212.656
1905.8	256.395
1905	196.953
1904.2	225.052
1903.4	243.765
1902.6	224.977
1901.8	249.932
1901	206.16
1900.19	227.987
1899.39	240.439
1898.59	202.934
1897.79	227.872
1896.99	196.624
1896.19	224.676
1895.39	177.838
1894.59	224.6
1893.79	196.492
1892.98	212.052
1892.18	233.841
1891.38	180.807
1890.58	230.646
1889.78	233.724
1888.97	236.8
1888.17	211.839
1887.37	193.115
1886.57	217.996
1885.76	205.505
1884.96	205.47
1884.16	258.351
1883.35	224.074
1882.55	236.483
1881.75	242.666
1880.94	239.515
1880.14	245.695
1879.33	220.777
1878.53	208.304
1877.73	261.113
1876.92	242.422
1876.12	285.886
1875.31	223.699
1874.51	232.981
1873.7	214.306
1872.9	242.219
1872.09	223.549
1871.29	229.72
1870.48	232.785
1869.68	226.54
1868.87	235.81
1868.07	260.588
1867.26	266.748
1866.45	217.084
1865.65	244.954
1864.84	244.913
1864.03	254.171
1863.23	241.732
1862.42	275.776
1861.61	213.768
1860.81	216.829
1860	263.249
1859.19	241.529
1858.38	210.528
1857.58	247.639
1856.77	244.502
1855.96	213.517
1855.15	259.89
1854.34	244.379
1853.54	238.152
1852.73	213.373
1851.92	253.531
1851.11	256.58
1850.3	222.538
1849.49	256.494
1848.68	278.079
1847.87	225.515
1847.06	244.01
1846.26	231.616
1845.45	240.84
1844.64	262.41
1843.83	256.192
1843.02	231.46
1842.21	253.021
1841.4	280.744
1840.58	237.513
1839.77	228.22
1838.96	237.433
1838.15	206.563
1837.34	255.848
1836.53	265.051
1835.72	255.762
1834.91	224.909
1834.1	218.711
1833.28	237.153
1832.47	267.907
1831.66	221.679
1830.85	246.269
1830.04	249.305
1829.22	270.805
1828.41	230.76
1827.6	264.561
1826.79	246.062
1825.97	255.246
1825.16	242.904
1824.35	245.937
1823.53	267.412
1822.72	267.367
1821.91	264.249
1821.09	221.195
1820.28	294.877
1819.46	257.974
1818.65	218.012
1817.84	264.027
1817.02	230.217
1816.21	260.869
1815.39	266.962
1814.58	242.373
1813.76	254.602
1812.95	257.626
1812.13	242.25
1811.32	285.133
1810.5	282.019
1809.69	263.582
1808.87	257.409
1808.05	263.494
1807.24	251.196
1806.42	229.713
1805.6	272.547
1804.79	293.934
1803.97	272.455
1803.15	278.531
1802.34	254.002
1801.52	260.079
1800.7	260.035
1799.89	305.872
1799.07	287.471
1798.25	244.615
1797.43	308.774
1796.62	284.269
1795.8	265.884
1794.98	247.505
1794.16	278.015
1793.34	268.804
1792.52	287.083
1791.71	244.285
1790.89	250.35
1790.07	308.305
1789.25	262.473
1788.43	274.635
1787.61	298.996
1786.79	244.038
1785.97	280.596
1785.15	301.894
1784.33	292.697
1783.51	295.696
1782.69	256.023
1781.87	265.122
1781.05	301.64
1780.23	277.218
1779.41	292.4
1778.59	264.943
1777.77	228.361
1776.94	273.986
1776.12	280.028
1775.3	264.764
1774.48	304.275
1773.66	270.759
1772.84	276.797
1772.01	258.503
1771.19	282.784
1770.37	294.897
1769.55	294.848
1768.73	252.25
1767.9	309.941
1767.08	264.317
1766.26	233.896
1765.43	267.264
1764.61	300.622
1763.79	294.499
1762.96	273.2
1762.14	309.574
1761.32	294.349
1760.49	315.538
1759.67	312.451
1758.84	282.068
1758.02	291.118
1757.19	321.388
1756.37	315.271
1755.54	309.156
1754.72	333.347
1753.89	330.26
1753.07	336.263
1752.24	318.033
1751.42	287.695
1750.59	323.981
1749.77	351.172
1748.94	311.764
1748.11	323.816
1747.29	329.813
1746.46	341.859
1745.64	329.702
1744.81	314.524
1743.98	320.519
1743.16	323.488
1742.33	323.433
1741.5	314.311
1740.67	338.432
1739.85	365.565
1739.02	329.255
1738.19	292.957
1737.36	320.084
1736.53	338.145
1735.71	298.845
1734.88	347.085
1734.05	344.008
1733.22	319.813
1732.39	313.726
1731.56	334.785
1730.73	301.557
1729.91	325.627
1729.08	313.513
1728.25	376.755
1727.42	337.515
1726.59	361.562
1725.76	358.488
1724.93	316.259
1724.1	340.298
1723.27	316.152
1722.44	352.224
1721.61	294.975
1720.78	331.038
1719.94	327.973
1719.11	351.985
1718.28	294.775
1717.45	351.865
1716.62	294.675
1715.79	348.74
1714.96	345.675
1714.12	312.557
1713.29	288.465
1712.46	348.503
1711.63	324.413
1710.8	330.365
1709.96	363.339
1709.13	309.236
1708.3	333.198
1707.46	339.144
1706.63	363.093
1705.8	324.028
1704.96	323.972
1704.13	341.913
1703.3	323.862
1702.46	299.822
1701.63	368.718
1700.8	341.681
1699.96	296.672
1699.13	326.583
1698.29	362.476
1697.46	353.429
1696.62	293.476
1695.79	332.35
1694.95	341.274
1694.12	365.161
1693.28	302.254
1692.45	356.061
1691.61	364.975
1690.78	343.975
1689.94	373.822
1689.1	367.779
1688.27	388.643
1687.43	382.599
1686.59	388.511
1685.76	352.588
1684.92	388.379
1684.08	367.403
1683.25	382.273
1682.41	361.306
1681.57	417.969
1680.73	394.018
1679.9	435.734
1679.06	393.884
1678.22	402.767
1677.38	360.937
1676.54	366.841
1675.71	441.327
1674.87	390.567
1674.03	453.1
1673.19	476.866
1672.35	446.986
1671.51	414.137
1670.67	428.961
1669.83	434.844
1668.99	449.66
1668.15	452.56
1667.31	455.46
1666.47	449.43
1665.63	461.257
1664.79	452.252
1663.95	458.125
1663.11	466.969
1662.27	475.811
1661.43	407.344
1660.59	398.356
1659.75	448.817
1658.91	460.628
1658.07	433.808
1657.23	466.412
1656.38	421.779
1655.54	463.284
1654.7	460.235
1653.86	448.282
1653.02	471.951
1652.17	465.935
1651.33	486.626
1650.49	447.976
1649.65	465.697
1648.8	430.029
1647.96	471.468
1647.12	450.635
1646.27	412.024
1645.43	400.098
1644.59	482.999
1643.74	408.85
1642.9	462.099
1642.05	423.519
1641.21	432.33
1640.36	482.587
1639.52	432.182
1638.68	405.472
1637.83	375.811
1636.99	437.878
1636.14	428.929
1635.3	419.983
1634.45	366.683
1633.6	458.275
1632.76	422.724
1631.91	419.696
1631.07	393.028
1630.22	390.006
1629.37	449.022
1628.53	460.759
1627.68	445.915
1626.83	395.645
1625.99	428.05
1625.14	374.849
1624.29	407.246
1623.45	377.671
1622.6	368.757
1621.75	380.492
1620.9	371.579
1620.06	353.825
1619.21	359.66
1618.36	403.812
1617.51	377.219
1616.66	400.727
1615.81	327.008
1614.97	418.263
1614.12	391.686
1613.27	394.564
1612.42	341.504
1611.57	367.937
1610.72	376.703
1609.87	397.236
1609.02	403.052
1608.17	388.276
1607.32	405.855
1606.47	402.845
1605.62	373.377
1604.77	411.526
1603.92	367.371
1603.07	364.37
1602.22	387.811
1601.37	375.995
1600.51	378.867
1599.66	375.866
1598.81	378.737
1597.96	387.479
1597.11	369.803
1596.26	369.739
1595.4	360.874
1594.55	360.812
1593.7	360.751
1592.85	375.351
1591.99	378.218
1591.14	366.428
1590.29	442.569
1589.44	386.815
1588.58	351.59
1587.73	380.824
1586.88	380.759
1586.02	389.478
1585.17	368.916
1584.31	357.143
1583.46	386.351
1582.61	400.917
1581.75	389.145
1580.9	353.973
1580.04	386.086
1579.19	368.474
1578.33	397.649
1577.48	391.734
1576.62	394.59
1575.77	371.143
1574.91	356.47
1574.05	391.466
1573.2	388.477
1572.34	362.127
1571.49	370.825
1570.63	382.439
1569.77	396.967
1568.92	373.552
1568.06	370.57
1567.2	402.598
1566.35	396.695
1565.49	379.128
1564.63	399.474
1563.77	341.098
1562.92	373.103
1562.06	375.954
1561.2	381.717
1560.34	378.738
1559.48	372.847
1558.63	355.309
1557.77	413.485
1556.91	413.414
1556.05	384.234
1555.19	404.541
1554.33	392.832
1553.47	372.399
1552.61	436.33
1551.75	401.354
1550.89	372.207
1550.03	354.699
1549.17	444.75
1548.31	392.359
1547.45	409.727
1546.59	360.265
1545.73	467.683
1544.87	397.898
1544.01	400.734
1543.15	342.597
1542.29	412.207
1541.43	386.015
1540.56	412.065
1539.7	449.712
1538.84	391.618
1537.98	420.554
1537.12	385.683
1536.25	365.321
1535.39	405.842
1534.53	388.382
1533.67	397.009
1532.8	405.633
1531.94	411.357
1531.08	388.115
1530.21	414.111
1529.35	405.353
1528.49	431.338
1527.62	361.798
1526.76	428.295
1525.9	413.754
1525.03	373.183
1524.17	428.074
1523.3	396.189
1522.44	456.84
1521.57	419.18
1520.71	390.204
1519.84	404.586
1518.98	418.963
1518.11	430.447
1517.25	424.596
1516.38	427.41
1515.52	450.436
1514.65	424.376
1513.78	415.644
1512.92	412.686
1512.05	418.386
1511.18	398.119
1510.32	377.859
1509.45	397.982
1508.58	444.048
1507.72	406.493
1506.85	389.129
1505.98	463.992
1505.11	412.046
1504.25	429.26
1503.38	486.795
1502.51	460.792
1501.64	414.641
1500.77	440.48
1499.91	423.133
1499.04	466.23
1498.17	420.11
1497.3	414.283
1496.43	460.235
1495.56	391.132
1494.69	405.442
1493.82	425.497
1492.95	411.051
1492.08	387.988
1491.21	433.897
1490.34	422.33
1489.47	445.237
1488.6	433.672
1487.73	476.67
1486.86	427.78
1485.99	473.635
1485.12	444.853
1484.25	444.776
1483.38	450.437
1482.5	392.989
1481.63	398.657
1480.76	453.071
1479.89	458.727
1479.02	441.448
1478.14	464.3
1477.27	441.296
1476.4	444.084
1475.53	455.466
1474.65	475.436
1473.78	481.08
1472.91	469.545
1472.03	452.288
1471.16	480.831
1470.29	483.609
1469.41	492.109
1468.54	466.278
1467.66	497.659
1466.79	520.45
1465.92	543.233
1465.04	531.704
1464.17	497.314
1463.29	571.527
1462.42	508.571
1461.54	539.906
1460.67	528.388
1459.79	542.575
1458.92	545.336
1458.04	499.567
1457.16	513.751
1456.29	567.882
1455.41	516.426
1454.53	539.158
1453.66	530.508
1452.78	544.675
1451.9	581.646
1451.03	544.486
1450.15	532.991
1449.27	544.298
1448.4	589.791
1447.52	501.378
1446.64	492.746
1445.76	546.768
1444.88	469.798
1444.01	543.732
1443.13	529.406
1442.25	515.086
1441.37	529.223
1440.49	534.821
1439.61	551.794
1438.73	511.885
1437.86	508.953
1436.98	528.764
1436.1	514.461
1435.22	525.739
1434.34	528.489
1433.46	593.737
1432.58	602.155
1431.7	556.613
1430.82	539.48
1429.93	550.742
1429.05	522.262
1428.17	536.361
1427.29	519.244
1426.41	558.87
1425.53	567.282
1424.65	567.184
1423.77	516.048
1422.88	552.812
1422	575.392
1421.12	575.292
1420.24	572.358
1419.36	549.595
1418.47	563.662
1417.59	577.724
1416.71	540.815
1415.82	566.2
1414.94	537.796
1414.06	588.643
1413.17	563.075
1412.29	565.806
1411.41	503.48
1410.52	576.922
1409.64	548.546
1408.75	556.932
1407.87	559.662
1406.98	582.173
1406.1	570.769
1405.22	556.545
1404.33	610.115
1403.44	564.823
1402.56	561.902
1401.67	558.981
1400.79	595.578
1399.9	575.719
1399.02	584.084
1398.13	544.486
1397.24	569.777
1396.36	580.959
1395.47	631.613
1394.58	600.491
1393.7	566.562
1392.81	603.101
1391.92	631.173
1391.04	650.784
1390.15	599.969
1389.26	611.13
1388.37	647.628
1387.48	633.439
1386.6	700.884
1385.71	709.205
1384.82	709.081
1383.93	675.198
1383.04	731.337
1382.15	787.457
1381.26	725.459
1380.37	700.03
1379.49	730.828
1378.6	755.994
1377.71	730.573
1376.82	811.919
1375.93	699.42
1375.04	808.827
1374.15	817.11
1373.26	769.241
1372.36	760.686
1371.47	788.618
1370.58	780.063
1369.69	715.4
1368.8	720.886
1367.91	726.369
1367.02	712.222
1366.13	751.348
1365.23	731.595
1364.34	779.111
1363.45	728.538
1362.56	666.776
1361.66	663.859
1360.77	716.954
1359.88	652.427
1358.99	716.704
1358.09	696.985
1357.2	640.891
1356.31	646.375
1355.41	668.644
1354.52	654.541
1353.62	646.037
1352.73	659.905
1351.84	668.177
1350.94	659.675
1350.05	665.149
1349.15	667.827
1348.26	684.473
1347.36	636.868
1346.47	731.711
1345.57	645.022
1344.68	636.534
1343.78	655.962
1342.89	625.148
1341.99	661.314
1341.09	594.241
1340.2	672.24
1339.3	736.267
1338.4	660.852
1337.51	602.19
1336.61	641.109
1335.71	649.357
1334.82	649.244
1333.92	640.773
1333.02	685.228
1332.12	690.678
1331.23	643.221
1330.33	676.517
1329.43	626.295
1328.53	670.714
1327.63	662.249
1326.73	637.095
1325.84	653.673
1324.94	714.743
1324.04	667.347
1323.14	614.408
1322.24	647.656
1321.34	630.868
1320.44	675.216
1319.54	630.647
1318.64	666.647
1317.74	660.976
1316.84	644.2
1315.94	666.297
1315.04	610.665
1314.14	596.682
1313.24	643.749
1312.34	660.282
1311.43	585.273
1310.53	610.131
1309.63	607.251
1308.73	621.006
1307.83	618.126
1306.93	559.819
1306.02	598.513
1305.12	573.474
1304.22	612.153
1303.32	664.665
1302.41	600.863
1301.51	658.895
1300.61	667.084
1299.7	678.037
1298.8	702.821
1297.9	730.363
1296.99	752.363
1296.09	763.294
1295.18	823.991
1294.28	823.847
1293.38	867.928
1292.47	900.939
1291.57	939.465
1290.66	977.977
1289.76	939.136
1288.85	1035.63
1287.95	1002.31
1287.04	1007.66
1286.13	1021.28
1285.23	1029.38
1284.32	971.259
1283.42	924.189
1282.51	984.709
1281.6	948.685
1280.7	890.615
1279.79	871.16
1278.88	840.688
1277.98	829.517
1277.07	837.637
1276.16	724.539
1275.25	743.693
1274.35	727.039
1273.44	737.925
1272.53	652.453
1271.62	633.071
1270.71	594.432
1269.8	630.097
1268.9	544.704
1267.99	563.863
1267.08	596.764
1266.17	569.164
1265.26	569.064
1264.35	604.696
1263.44	560.619
1262.53	519.306
1261.62	585.147
1260.71	530.11
1259.8	546.494
1258.89	507.958
1257.98	565.519
1257.07	559.93
1256.16	568.064
1255.24	535.039
1254.33	529.458
1253.42	548.565
1252.51	559.438
1251.6	529.179
1250.69	542.792
1249.77	528.993
1248.86	542.602
1247.95	506.887
1247.04	504.058
1246.12	517.664
1245.21	468.281
1244.3	484.626
1243.39	490.016
1242.47	547.407
1241.56	498.053
1240.64	489.757
1239.73	511.556
1238.82	459.499
1237.9	462.152
1236.99	451.134
1236.07	489.326
1235.16	459.175
1234.24	489.154
1233.33	450.817
1232.41	475.323
1231.5	417.883
1230.58	445.117
1229.67	480.532
1228.75	453.149
1227.84	450.34
1226.92	428.43
1226	428.354
1225.09	452.83
1224.17	452.75
1223.25	395.405
1222.34	381.703
1221.42	485.222
1220.5	455.156
1219.58	430.551
1218.67	441.373
1217.75	416.779
1216.83	438.494
1215.91	471.094
1214.99	441.062
1214.08	432.818
1213.16	424.577
1212.24	451.713
1211.32	448.913
1210.4	481.476
1209.48	473.232
1208.56	432.36
1207.64	475.784
1206.72	470.263
1205.8	426.695
1204.88	467.38
1203.96	480.882
1203.04	437.335
1202.12	469.848
1201.2	401.88
1200.28	399.094
1199.36	423.454
1198.44	431.521
1197.52	363.607
1196.6	398.812
1195.67	409.592
1194.75	417.656
1193.83	423.005
1192.91	441.908
1191.99	436.409
1191.06	425.491
1190.14	438.964
1189.22	430.759
1188.3	403.596
1187.37	433.315
1186.45	411.576
1185.53	419.625
1184.6	452.033
1183.68	411.358
1182.75	432.932
1181.83	440.972
1180.91	405.73
1179.98	448.929
1179.06	419.106
1178.13	448.77
1177.21	462.205
1176.28	456.719
1175.36	418.81
1174.43	499.781
1173.51	453.775
1172.58	464.497
1171.65	515.717
1170.73	512.926
1169.8	475.047
1168.88	488.456
1167.95	493.766
1167.02	474.795
1166.1	477.408
1165.17	498.897
1164.24	517.683
1163.31	541.853
1162.39	555.234
1161.46	533.577
1160.53	517.316
1159.6	519.918
1158.67	544.067
1157.75	541.278
1156.82	576.184
1155.89	586.849
1154.96	570.596
1154.03	600.096
1153.1	626.896
1152.17	618.714
1151.24	605.157
1150.31	575.469
1149.38	586.122
1148.45	545.695
1147.52	577.851
1146.59	631.492
1145.66	574.959
1144.73	574.857
1143.8	582.813
1142.87	596.136
1141.94	558.443
1141.01	574.45
1140.08	617.289
1139.14	558.145
1138.21	595.607
1137.28	616.961
1136.35	614.17
1135.42	614.061
1134.48	613.952
1133.55	608.482
1132.62	616.414
1131.69	618.984
1130.75	651.023
1129.82	591.978
1128.89	599.907
1127.95	664.065
1127.02	629.143
1126.08	570.144
1125.15	685.121
1124.22	709.082
1123.28	647.424
1122.35	660.683
1121.41	639.171
1120.48	663.122
1119.54	689.738
1118.61	617.447
1117.67	737.597
1116.73	630.587
1115.8	654.519
1114.86	643.718
1113.93	715.709
1112.99	654.17
1112.05	672.74
1111.12	664.614
1110.18	600.448
1109.24	688.391
1108.31	656.256
1107.37	613.463
1106.43	645.355
1105.49	586.582
1104.56	621.134
1103.62	647.677
1102.68	572.945
1101.74	612.809
1100.8	548.766
1099.86	575.303
1098.93	607.156
1097.99	591.073
1097.05	540.39
1096.11	524.324
1095.17	566.808
1094.23	500.192
1093.29	574.586
1092.35	561.186
1091.41	550.449
1090.47	521.106
1089.53	534.304
1088.59	587.364
1087.65	512.855
1086.71	531.362
1085.77	587.05
1084.82	520.549
1083.88	533.733
1082.94	573.462
1082	501.69
1081.06	541.41
1080.11	551.927
1079.17	501.421
1078.23	517.247
1077.29	522.459
1076.34	532.973
1075.4	540.831
1074.46	527.481
1073.52	551.239
1072.57	495.497
1071.63	529.848
1070.68	553.593
1069.74	503.177
1068.8	548.1
1067.85	518.881
1066.91	471.145
1065.96	571.624
1065.02	523.895
1064.07	539.675
1063.13	579.253
1062.18	518.326
1061.24	512.945
1060.29	515.497
1059.35	496.904
1058.4	502.1
1057.45	539.001
1056.51	552.113
1055.56	570.503
1054.61	501.742
1053.67	499.012
1052.72	509.482
1051.77	525.227
1050.82	575.272
1049.88	604.191
1048.93	530.222
1047.98	569.688
1047.03	548.491
1046.09	545.756
1045.14	521.935
1044.19	535.019
1043.24	553.369
1042.29	569.078
1041.34	563.708
1040.39	529.369
1039.44	542.441
1038.49	516.017
1037.54	476.44
1036.59	489.514
1035.64	526.265
1034.69	486.708
1033.74	518.186
1032.79	491.794
1031.84	481.188
1030.89	475.844
1029.94	491.53
1028.99	452.022
1028.04	457.196
1027.09	457.114
1026.13	488.552
1025.18	467.455
1024.23	464.746
1023.28	504.041
1022.32	451.456
1021.37	398.89
1020.42	456.542
1019.47	480.07
1018.51	461.624
1017.56	445.807
1016.61	477.19
1015.65	443.026
1014.7	495.366
1013.74	463.831
1012.79	421.828
1011.84	461.046
1010.88	460.963
1009.93	455.643
1008.97	481.743
1008.02	452.862
1007.06	489.422
1006.11	463.167
1005.15	520.643
1004.19	478.696
1003.24	483.841
1002.28	478.524
1001.33	491.511
1000.37	457.441
999.414	420.771
998.457	423.308
997.5	519.896
996.543	470.174
995.586	394.353
994.628	449.116
993.671	449.035
992.713	451.565
991.755	472.362
990.797	480.105
989.839	443.496
988.88	446.024
987.921	456.376
986.963	414.576
986.004	464.033
985.045	448.311
984.085	448.23
983.126	453.361
982.166	445.464
981.206	453.198
980.246	458.325
979.286	471.261
978.326	481.589
977.365	432.051
976.404	421.564
975.443	408.48
974.482	468.237
973.521	423.938
972.56	468.068
971.598	415.986
970.637	408.113
969.675	431.43
968.713	423.557
967.75	413.089
966.788	433.795
965.825	436.315
964.862	410.27
963.899	402.407
962.936	410.122
961.973	443.787
961.01	459.276
960.046	459.193
959.082	498.018
958.118	464.215
957.154	469.317
956.19	534.044
955.225	500.252
954.26	466.472
953.296	489.708
952.33	453.351
951.365	489.531
950.4	486.854
949.434	468.642
948.469	455.614
947.503	473.65
946.537	502.03
945.57	442.431
944.604	473.394
943.637	455.204
942.671	434.435
941.704	436.942
940.737	460.128
939.769	457.461
938.802	426.37
937.834	444.378
936.866	433.965
935.898	462.297
934.93	462.213
933.962	462.13
932.993	454.303
932.025	423.251
931.056	407.693
930.087	464.377
929.117	441.079
928.148	487.42
927.178	495.068
926.209	464.042
925.239	471.691
924.269	420.064
923.298	515.324
922.328	489.469
921.357	497.108
920.387	473.841
919.416	507.228
918.445	509.71
917.473	507.045
916.502	481.22
915.53	434.82
914.558	514.488
913.586	532.399
912.614	486.015
911.642	498.783
910.669	475.558
909.696	498.603
908.724	516.5
907.75	526.684
906.777	544.57
905.804	485.402
904.83	536.67
903.856	526.304
902.882	523.642
901.908	544.078
900.934	541.414
899.96	518.227
898.985	528.394
898.01	512.911
897.035	582.049
896.06	543.489
895.085	512.633
894.109	543.293
893.133	556.006
892.157	473.928
891.181	548.121
890.205	540.339
889.229	540.241
888.252	504.305
887.275	557.962
886.298	519.476
885.321	555.202
884.344	506.498
883.366	562.674
882.389	567.687
881.411	559.914
880.433	598.156
879.455	567.379
878.476	582.608
877.498	564.618
876.519	579.843
875.54	569.522
874.561	625.595
873.582	633.14
872.603	604.948
871.623	643.12
870.643	622.59
869.663	686.256
868.683	630.017
867.703	655.405
866.722	729.229
865.742	731.646
864.761	757.002
863.78	705.898
862.799	731.249
861.817	797.35
860.836	761.548
859.854	741.038
858.872	743.45
857.89	814.592
856.908	758.451
855.925	765.948
854.943	753.088
853.96	788.564
852.977	826.57
851.994	826.42
851.01	828.813
850.027	798.16
849.043	772.6
848.059	805.493
847.075	810.428
846.091	754.4
845.107	812.674
844.122	726.196
843.137	715.909
842.152	764.006
841.167	708.036
840.182	710.445
839.196	674.8
838.211	672.141
837.225	661.876
836.239	664.291
835.253	572.91
834.266	628.566
833.28	605.646
832.293	582.733
831.306	539.563
830.319	567.325
829.332	544.432
828.344	554.46
827.357	541.703
826.369	531.481
825.381	523.793
824.393	533.818
823.404	503.367
822.416	505.805
821.427	467.784
820.438	508.149
819.449	454.976
818.46	480.165
817.471	480.078
816.481	515.359
815.491	419.284
814.501	489.918
813.511	454.48
812.521	401.385
811.53	459.363
810.54	421.427
809.549	413.781
808.558	431.364
807.566	413.631
806.575	403.469
805.583	380.704
804.592	383.156
803.6	430.972
802.608	425.854
801.615	425.776
800.623	415.623
799.63	460.88
798.637	440.652
797.644	425.466
796.651	382.598
795.658	432.861
794.664	410.137
793.67	407.547
792.676	420.049
791.682	394.824
790.688	407.324
789.694	412.278
788.699	449.904
787.704	414.64
786.709	424.615
785.714	462.218
784.718	452.088
783.723	467.072
782.727	429.327
781.731	449.331
780.735	434.19
779.739	373.887
778.742	406.434
777.746	433.953
776.749	413.81
775.752	453.854
774.755	433.715
773.757	413.584
772.76	438.569
771.762	435.984
770.764	428.389
769.766	493.434
768.768	433.241
767.769	465.712
766.771	453.11
765.772	503.086
764.773	492.984
763.773	495.396
762.774	442.773
761.775	462.701
760.775	472.619
759.775	507.535
758.775	442.45
757.774	484.857
756.774	442.288
755.773	472.188
754.772	502.076
753.771	491.995
752.77	471.929
751.769	471.843
750.767	441.804
749.765	496.627
748.764	471.585
747.761	491.456
746.759	436.493
745.757	503.745
744.754	483.707
743.751	508.547
742.748	486.022
741.745	480.95
740.741	475.879
739.738	475.792
738.734	455.78
737.73	470.638
736.726	480.51
735.722	435.616
734.717	500.245
733.712	500.153
732.708	519.965
731.703	462.659
730.697	512.314
729.692	509.733
728.686	457.433
727.68	529.432
726.674	529.335
725.668	504.391
724.662	509.267
723.655	494.271
722.649	486.731
721.642	518.919
720.635	508.895
719.627	518.729
718.62	493.819
717.612	506.134
716.605	533.328
715.597	548.111
714.588	505.856
713.58	582.62
712.571	547.81
711.563	584.885
710.554	537.698
709.545	587.148
708.535	485.485
707.526	569.597
706.516	534.828
705.506	564.437
704.496	576.709
703.486	569.18
702.476	549.281
701.465	559.076
700.454	581.233
699.443	591.018
698.432	585.965
697.421	575.97
696.409	595.636
695.398	607.882
694.386	543.535
693.374	587.898
692.361	535.927
691.349	595.09
690.336	570.293
689.323	572.657
688.31	577.488
687.297	567.512
686.284	564.941
685.27	562.37
684.256	577.064
683.243	510.386
682.228	566.991
681.214	534.846
680.2	564.319
679.185	522.33
678.17	559.185
677.155	544.305
676.14	554.055
675.124	558.877
674.109	526.774
673.093	551.288
672.077	526.58
671.061	565.847
670.044	592.8
669.028	538.587
668.011	501.605
666.994	580.181
665.977	607.112
664.96	511.158
663.942	533.178
662.925	577.298
661.907	530.526
660.889	599.187
659.87	569.614
658.852	549.871
657.833	655.307
656.815	586.477
655.796	552.022
654.777	583.809
653.757	576.344
652.738	522.292
651.718	615.358
650.698	605.44
649.678	595.525
648.658	649.322
647.637	561.009
646.616	585.399
645.596	590.189
644.574	580.287
643.553	577.732
642.532	553.15
641.51	641.144
640.488	584.753
639.466	633.57
638.444	631.007
637.422	638.227
636.399	603.881
635.377	618.436
634.354	603.659
633.331	647.531
632.307	642.525
631.284	627.751
630.26	652.057
629.236	605.545
628.212	617.639
627.188	680.987
626.163	641.815
625.139	614.858
624.114	668.413
623.089	609.753
622.064	665.728
621.038	629.033
620.013	638.668
618.987	709.229
617.961	621.375
616.935	728.458
615.909	691.786
614.882	642.95
613.855	613.612
612.829	664.623
611.801	654.764
610.774	654.644
609.747	673.988
608.719	610.613
607.691	651.849
606.663	632.274
605.635	678.353
604.607	632.041
603.578	619.772
602.549	631.807
601.52	655.986
600.491	636.432
599.462	619.314
598.432	650.767
597.402	667.641
596.372	589.843
595.342	643.125
594.312	633.301
593.281	635.61
592.251	603.96
591.22	649.925
590.189	644.956
589.158	574.535
588.126	639.87
587.094	622.789
586.063	569.371
585.031	593.49
583.998	600.646
582.966	607.799
581.933	634.318
580.9	626.939
579.867	634.084
578.834	658.164
577.801	612.076
576.767	597.45
575.734	645.707
574.7	645.587
573.666	621.293
572.631	679.187
571.597	659.728
570.562	654.774
569.527	700.551
568.492	712.498
567.457	668.899
566.421	654.289
565.386	656.582
564.35	695.076
563.314	728.729
562.277	677.93
561.241	685.041
560.204	689.738
559.168	682.376
558.131	648.499
557.093	689.354
556.056	650.669
555.018	686.69
553.981	708.243
552.943	623.813
551.904	630.922
550.866	625.989
549.828	637.909
548.789	632.978
547.75	637.673
546.711	591.843
545.671	630.22
544.632	642.128
543.592	642.009
542.552	649.102
541.512	670.615
540.472	608.007
539.431	646.338
538.391	607.782
537.35	610.071
536.309	624.366
535.268	576.231
534.226	592.928
533.185	628.819
532.143	643.1
531.101	628.585
530.058	666.848
529.016	621.157
527.973	654.612
526.931	592.158
525.888	606.429
524.845	589.541
523.801	610.996
522.758	572.553
521.714	653.883
520.67	641.787
519.626	608.148
518.581	600.854
517.537	629.463
516.492	614.988
515.447	622.051
514.402	624.328
513.357	614.645
512.311	616.922
511.265	631.152
510.22	647.767
509.173	664.375
508.127	657.083
507.081	609.182
506.034	666.393
504.987	671.045
503.94	647.044
502.893	649.311
501.845	665.897
500.798	589.412
499.75	591.689
498.702	601.12
497.654	634.398
496.605	586.589
495.557	669.923
494.508	619.742
493.459	612.477
492.409	619.511
491.36	566.985
490.31	569.262
489.261	642.979
488.211	611.907
487.16	607.032
486.11	590.258
485.059	628.223
484.009	566.247
482.958	620.852
481.907	611.224
480.855	594.465
479.804	610.996
478.752	598.997
477.7	613.145
476.648	634.415
475.595	589.16
474.543	684.058
473.49	622.187
472.437	567.462
471.384	607.712
470.331	647.947
469.277	621.723
468.223	569.411
467.17	638.096
466.115	588.172
465.061	609.403
464.007	625.885
462.952	609.176
461.897	590.103
460.842	675.293
459.787	637.263
458.731	613.458
457.675	646.498
456.62	674.789
455.564	662.827
454.507	717.14
453.451	707.54
452.394	695.579
451.337	690.718
450.28	664.574
449.223	699.918
448.165	687.967
447.108	652.383
446.05	716.069
444.992	689.944
443.934	755.962
442.875	673.153
441.816	694.281
440.758	687.068
439.699	675.136
438.639	672.65
437.58	648.927
436.52	677.117
435.46	691.144
434.4	695.732
433.34	705.033
432.28	726.119
431.219	700.056
430.158	622.155
429.097	612.614
428.036	676.105
426.975	699.532
425.913	657.013
424.851	694.561
423.789	715.618
422.727	682.534
421.664	689.465
420.602	686.984
419.539	708.025
418.476	719.652
417.413	686.598
416.349	651.206
415.286	634.631
414.222	660.362
413.158	671.987
412.094	693.003
411.029	697.571
409.965	695.092
408.9	720.788
407.835	650.231
406.77	701.742
405.704	701.611
404.639	699.133
403.573	677.892
402.507	717.633
401.441	701.085
400.374	724.397
399.308	752.388
398.241	691.317
397.174	670.101
396.107	677.003
395.039	712.008
393.972	674.407
392.904	739.836
391.836	718.63
390.768	704.453
389.699	718.361
388.631	662.078
387.562	692.361
386.493	612.718
385.424	664.044
384.354	698.985
383.285	703.529
382.215	661.333
381.145	682.237
380.075	719.484
379.004	705.336
377.934	686.523
376.863	679.39
375.792	676.928
374.721	648.796
373.649	714.008
372.578	655.551
371.506	632.103
370.434	669.297
369.361	680.829
368.289	678.37
367.216	640.951
366.144	652.482
365.071	684.977
363.997	710.472
362.924	663.759
361.85	607.749
360.776	684.463
359.702	702.955
358.628	600.425
357.554	705.018
356.479	609.505
355.404	660.56
354.329	653.46
353.254	660.312
352.178	625.319
351.103	632.174
350.027	683.177
348.951	652.846
347.875	608.589
346.798	657.245
345.721	631.579
344.645	680.213
343.568	670.801
342.49	654.43
341.413	645.026
340.335	651.864
339.257	612.312
338.179	644.661
337.101	697.865
336.022	723.233
334.944	683.697
333.865	665.031
332.786	616.254
331.706	671.729
330.627	648.444
329.547	676.107
328.467	687.555
327.387	708.256
326.307	731.264
325.226	675.598
324.146	624.579
323.065	730.851
321.983	647.467
320.902	677.401
319.821	684.207
318.739	709.5
317.657	665.464
316.575	681.51
315.492	669.833
314.41	718.203
313.327	697.287
312.244	694.847
311.161	692.408
310.078	639.203
308.994	641.389
307.91	673.563
306.826	694.192
305.742	668.697
304.658	666.265
303.573	670.749
302.488	622.227
301.403	688.929
300.318	704.925
299.232	688.669
298.147	690.842
297.061	674.595
295.975	653.75
294.889	715.767
293.802	694.922
292.716	717.797
291.629	639.455
290.542	706.028
289.454	733.486
288.367	705.761
287.279	682.643
286.191	698.6
285.103	746.718
284.015	719.01
282.926	682.127
281.838	732.516
280.749	755.337
279.66	686.331
278.57	738.986
277.481	745.73
276.391	720.354
275.301	715.63
274.211	736.134
273.121	735.995
272.03	745.025
270.939	774.68
269.848	799.74
268.757	751.476
267.666	758.206
266.574	744.321
265.482	744.18
264.39	792.115
263.298	853.766
262.206	782.662
261.113	823.698
260.02	814.392
258.927	754.771
257.834	818.657
256.74	850.511
255.647	827.491
254.553	820.478
253.459	838.603
252.365	845.297
251.27	845.137
250.175	851.828
249.08	824.268
247.985	883.466
246.89	860.474
245.794	878.567
244.699	876.119
243.603	894.202
242.507	850.699
241.41	959.99
240.314	914.212
239.217	943.671
238.12	863.728
237.023	911.413
235.925	943.134
234.828	952.066
233.73	997.43
232.632	940.321
231.534	990.223
230.435	951.344
229.336	1023.98
228.238	1003.31
227.139	962.176
226.039	941.525
224.94	970.906
223.84	968.448
222.74	1038.72
221.64	956.718
220.54	942.904
219.439	974.528
218.338	994.783
217.237	955.991
216.136	1033
215.035	973.788
213.933	959.986
212.832	1016.53
211.73	1050.37
210.627	1036.56
209.525	1020.49
208.422	1040.7
207.32	1079.04
206.216	1072.03
205.113	1051.43
204.01	1092.02
202.906	1039.71
201.802	1021.39
200.698	1102.71
199.594	1009.69
198.489	1102.3
197.385	1081.72
196.28	1029.47
195.174	1036.06
194.069	1060.75
192.964	1008.53
191.858	1033.21
190.752	1001.37
189.646	1035.08
188.539	1014.55
187.433	1016.61
186.326	1009.64
185.219	1004.93
184.111	970.875
183.004	993.264
181.896	1024.67
180.788	1024.48
179.68	1017.51
178.572	1062.43
177.464	983.298
176.355	1037.23
175.246	1084.37
174.137	1050.36
173.027	1020.86
171.918	1088.26
170.808	1011.46
169.698	1063.07
168.588	1008.82
167.477	1031.14
166.367	1024.19
165.256	1062.26
164.145	1093.56
163.034	1133.84
161.922	1140.38
160.81	1140.16
159.699	1126.45
158.586	1168.95
157.474	1233.9
156.362	1292.09
155.249	1296.34
154.136	1291.6
153.023	1322.8
151.909	1297.84
150.796	1295.35
149.682	1315.3
148.568	1377.89
147.454	1361.92
146.339	1404.28
145.225	1464.57
144.11	1430.65
142.995	1515.58
141.879	1607.19
140.764	1604.64
139.648	1579.69
138.532	1653.32
137.416	1700.04
136.3	1762.42
135.183	1755.36
134.066	1815.47
132.949	1850.93
131.832	1940.09
130.715	1973.27
129.597	1963.95
128.479	1970.28
127.361	1963.2
126.243	2143.9
125.124	2083.15
124.005	2111.8
122.887	2290.14
121.767	2258.43
120.648	2371.9
119.528	2389.31
118.409	2493.78
117.289	2459.82
116.168	2459.35
115.048	2574.91
113.927	2627.96
112.807	2709.98
111.685	2624.72
110.564	2671.04
109.443	2755.24
108.321	2612.07
107.199	2618.26
106.077	2648.95
104.955	2592.75
103.832	2371.78
102.709	2406.95
101.586	2415.4
100.463	2337.03
