3201.19	8.42242
3200.6	25.2673
3200	0
3199.41	0
3198.82	8.41861
3198.22	29.4607
3197.63	16.8321
3197.03	16.8296
3196.44	12.6203
3195.85	-4.20613
3195.25	0
3194.66	-4.20486
3194.06	4.20422
3193.47	0
3192.87	21.0147
3192.28	29.4162
3191.68	21.0084
3191.09	8.40209
3190.49	0
3189.9	16.7991
3189.3	16.7966
3188.71	37.7865
3188.11	25.1872
3187.52	29.3806
3186.92	16.7864
3186.32	16.7839
3185.73	4.19533
3185.13	-16.7788
3184.54	4.19406
3183.94	12.5803
3183.34	-4.19279
3182.75	16.7686
3182.15	16.7661
3181.55	0
3180.96	12.5708
3180.36	8.37925
3179.76	0
3179.17	29.3185
3178.57	12.5632
3177.97	4.18709
3177.38	29.3052
3176.78	20.9291
3176.18	16.7408
3175.58	12.5537
3174.99	8.36785
3174.39	29.283
3173.79	8.36531
3173.19	4.18202
3172.6	8.36278
3172	16.723
3171.4	4.18013
3170.8	0
3170.2	8.35772
3169.6	33.4258
3169.01	25.0656
3168.41	12.5309
3167.81	29.2343
3167.21	20.8785
3166.61	4.17506
3166.01	16.6977
3165.41	16.6952
3164.81	4.17317
3164.22	16.6901
3163.62	16.6876
3163.02	-4.17127
3162.42	16.6826
3161.82	25.0201
3161.22	-4.16938
3160.62	-8.33749
3160.02	8.33623
3159.42	8.33496
3158.82	20.8343
3158.22	12.4987
3157.62	4.16559
3157.02	29.1547
3156.42	0
3155.82	45.8006
3155.22	41.6306
3154.62	8.32486
3154.02	-8.3236
3153.42	20.8059
3152.81	12.4816
3152.21	54.0788
3151.61	24.9557
3151.01	4.15865
3150.41	37.4222
3149.81	24.9443
3149.21	16.627
3148.61	8.31225
3148	4.1555
3147.4	33.2389
3146.8	20.7712
3146.2	8.30721
3145.6	20.7649
3144.99	-4.15235
3144.39	24.9103
3143.79	4.15109
3143.19	24.9027
3142.59	24.899
3141.98	16.5968
3141.38	37.3371
3140.78	0
3140.17	4.14731
3139.57	-8.29336
3138.97	20.7302
3138.37	4.14542
3137.76	12.4344
3137.16	12.4325
3136.56	24.8612
3135.95	24.8574
3135.35	8.28455
3134.75	24.8499
3134.14	-12.4231
3133.54	0
3132.93	4.13976
3132.33	16.5565
3131.73	4.1385
3131.12	16.5515
3130.52	12.4117
3129.91	0
3129.31	4.13599
3128.7	20.6768
3128.1	0
3127.49	-4.13411
3126.89	41.3348
3126.28	8.2657
3125.68	24.7933
3125.07	24.7896
3124.47	4.13097
3123.86	41.3034
3123.26	20.6486
3122.65	16.5163
3122.05	0
3121.44	16.5113
3120.84	8.2544
3120.23	12.3797
3119.62	8.25189
3119.02	28.8772
3118.41	8.24939
3117.81	-8.24813
3117.2	16.4938
3116.59	24.7369
3115.99	12.3666
3115.38	20.6078
3114.77	37.0884
3114.17	0
3113.56	12.359
3112.95	0
3112.35	-16.4737
3111.74	24.7068
3111.13	4.11717
3110.52	-16.4662
3109.92	0
3109.31	12.3459
3108.7	-20.5733
3108.09	16.4562
3107.49	-4.11342
3106.88	4.11279
3106.27	20.5608
3105.66	20.5577
3105.05	20.5546
3104.45	24.6617
3103.84	16.4387
3103.23	20.5452
3102.62	24.6505
3102.01	0
3101.4	41.0716
3100.8	12.3196
3100.19	8.21182
3099.58	0
3098.97	4.10466
3098.36	12.3121
3097.75	4.10341
3097.14	-16.4111
3096.53	28.7151
3095.92	20.5077
3095.31	4.10091
3094.7	20.5014
3094.09	0
3093.48	12.2971
3092.87	12.2952
3092.26	45.0757
3091.65	4.09717
3091.04	4.09654
3090.43	32.7674
3089.82	8.19059
3089.21	20.4734
3088.6	28.6583
3087.99	20.4671
3087.38	20.464
3086.77	8.18435
3086.16	4.09155
3085.55	24.5456
3084.93	0
3084.32	28.6278
3083.71	24.5344
3083.1	12.2653
3082.49	-16.3512
3081.88	12.2616
3081.27	0
3080.65	28.6016
3080.04	8.17064
3079.43	16.3388
3078.82	4.08407
3078.21	4.08345
3077.59	4.08283
3076.98	-8.16441
3076.37	4.08158
3075.76	8.16192
3075.14	20.4017
3074.53	4.07972
3073.92	-4.07909
3073.3	16.3139
3072.69	20.3893
3072.08	16.3089
3071.46	8.15321
3070.85	8.15197
3070.24	16.3014
3069.62	20.3737
3069.01	16.2965
3068.4	8.14699
3067.78	12.2186
3067.17	0
3066.55	0
3065.94	28.4971
3065.33	8.14078
3064.71	0
3064.1	28.484
3063.48	20.3426
3062.87	8.13581
3062.25	12.2018
3061.64	4.06666
3061.02	4.06604
3060.41	4.06542
3059.79	-12.1944
3059.18	4.06418
3058.56	-16.2542
3057.95	24.3776
3057.33	24.3739
3056.72	28.4319
3056.1	12.1832
3055.49	8.12091
3054.87	40.5984
3054.26	20.2961
3053.64	8.11719
3053.02	4.05798
3052.41	12.1721
3051.79	4.05674
3051.17	20.2806
3050.56	8.11099
3049.94	24.3293
3049.32	36.4883
3048.71	-4.05364
3048.09	16.2121
3047.47	12.1572
3046.86	16.2071
3046.24	32.4093
3045.62	12.1516
3045.01	12.1498
3044.39	4.0493
3043.77	4.04868
3043.15	0
3042.54	16.1898
3041.92	36.4214
3041.3	24.2772
3040.68	-4.04559
3040.06	12.1349
3039.45	-8.0887
3038.83	8.08746
3038.21	16.1724
3037.59	40.4249
3036.97	16.1675
3036.35	12.1238
3035.73	16.1626
3035.12	4.04002
3034.5	-16.1576
3033.88	20.1939
3033.26	-4.03817
3032.64	4.03755
3032.02	0
3031.4	28.2542
3030.78	4.03569
3030.16	0
3029.54	4.03446
3028.92	28.2369
3028.3	24.1993
3027.68	16.1304
3027.06	20.1599
3026.44	4.03137
3025.82	12.0923
3025.2	4.03014
3024.58	12.0886
3023.96	12.0867
3023.34	16.1131
3022.72	12.083
3022.1	12.0812
3021.48	36.2379
3020.86	20.1291
3020.24	-12.0756
3019.62	20.1229
3018.99	20.1198
3018.37	20.1168
3017.75	4.02274
3017.13	12.0664
3016.51	16.086
3015.89	8.04178
3015.26	4.02027
3014.64	28.1376
3014.02	4.01904
3013.4	16.0737
3012.78	8.03561
3012.15	24.1031
3011.53	8.03315
3010.91	4.01596
3010.29	-12.046
3009.66	0
3009.04	4.01411
3008.42	8.027
3007.79	20.0644
3007.17	0
3006.55	16.0466
3005.92	24.0662
3005.3	28.073
3004.68	16.0392
3004.05	12.0276
3003.43	28.06
3002.81	24.0478
3002.18	28.0514
3001.56	20.0337
3000.94	28.0428
3000.31	0
2999.69	24.0293
2999.06	36.0385
2998.44	20.0183
2997.81	16.0122
2997.19	20.0122
2996.56	16.0073
2995.94	36.0108
2995.31	20.0029
2994.69	19.9999
2994.06	15.9974
2993.44	27.9912
2992.81	23.9888
2992.19	11.9926
2991.56	11.9907
2990.94	23.9777
2990.31	7.99136
2989.69	11.9852
2989.06	27.9612
2988.43	27.9569
2987.81	11.9797
2987.18	0
2986.56	7.98399
2985.93	11.9742
2985.3	35.9169
2984.68	19.9508
2984.05	0
2983.42	23.9336
2982.8	31.9066
2982.17	35.8894
2981.54	0
2980.92	27.9054
2980.29	19.9293
2979.66	39.8526
2979.03	15.9386
2978.41	15.9361
2977.78	19.9171
2977.15	15.9312
2976.52	23.8932
2975.89	31.8527
2975.27	35.8287
2974.64	39.8036
2974.01	15.919
2973.38	31.8331
2972.75	11.9356
2972.13	23.8675
2971.5	19.8865
2970.87	3.97669
2970.24	11.9282
2969.61	3.97546
2968.98	23.8491
2968.35	47.6909
2967.72	27.8154
2967.09	35.7572
2966.46	31.7793
2965.84	0
2965.21	31.7695
2964.58	7.94115
2963.95	15.8799
2963.32	27.7855
2962.69	15.875
2962.06	23.8088
2961.43	7.93504
2960.8	15.8676
2960.17	19.8315
2959.54	3.96569
2958.91	39.6508
2958.27	27.7513
2957.64	7.92772
2957.01	15.853
2956.38	3.96264
2955.75	23.7722
2955.12	23.7685
2954.49	23.7648
2953.86	19.801
2953.23	31.6767
2952.59	11.8769
2951.96	19.7918
2951.33	7.91552
2950.7	27.7
2950.07	31.6523
2949.44	23.7356
2948.8	7.91064
2948.17	31.6377
2947.54	23.7246
2946.91	15.814
2946.27	-3.95288
2945.64	23.7137
2945.01	15.8067
2944.38	39.5106
2943.74	27.6531
2943.11	3.94984
2942.48	31.5938
2941.84	7.89724
2941.21	51.3242
2940.58	7.89481
2939.94	3.9468
2939.31	39.4619
2938.68	35.5102
2938.04	15.7799
2937.41	27.6105
2936.78	7.88751
2936.14	15.7726
2935.51	15.7702
2934.87	19.7097
2934.24	11.824
2933.61	0
2932.97	7.88021
2932.34	11.8185
2931.7	31.5111
2931.07	23.6297
2930.43	31.5014
2929.8	51.1819
2929.16	23.6188
2928.53	35.4227
2927.89	27.5467
2927.26	19.6732
2926.62	27.5382
2925.98	31.4674
2925.35	23.5969
2924.71	27.5255
2924.08	31.4528
2923.44	19.655
2922.81	27.5127
2922.17	23.5787
2921.53	19.6459
2920.9	39.2857
2920.26	-3.92796
2919.62	23.5641
2918.99	19.6338
2918.35	11.7784
2917.71	7.85108
2917.08	23.5496
2916.44	23.546
2915.8	23.5423
2915.16	3.92311
2914.53	31.3801
2913.89	3.9219
2913.25	47.0556
2912.61	3.92069
2911.98	7.84017
2911.34	31.3558
2910.7	31.351
2910.06	19.5913
2909.43	15.6706
2908.79	15.6682
2908.15	35.2481
2907.51	31.3268
2906.87	23.4914
2906.23	50.8903
2905.59	27.3982
2904.96	0
2904.32	27.3897
2903.68	43.0344
2903.04	7.82322
2902.4	19.555
2901.76	58.656
2901.12	23.4588
2900.48	39.0919
2899.84	11.7258
2899.2	31.2639
2898.56	7.81476
2897.92	23.4406
2897.28	27.3432
2896.64	27.339
2896	31.2397
2895.36	27.3305
2894.72	15.615
2894.08	23.4189
2893.44	11.7076
2892.8	3.90194
2892.16	39.0134
2891.52	35.1066
2890.88	11.7004
2890.24	15.5981
2889.59	31.1914
2888.95	38.9832
2888.31	38.9772
2887.67	15.5885
2887.03	19.4826
2886.39	15.5836
2885.74	7.79061
2885.1	11.6841
2884.46	46.7292
2883.82	23.361
2883.18	19.4645
2882.53	38.9229
2881.89	23.3501
2881.25	31.1287
2880.61	23.3429
2879.96	27.2292
2879.32	11.6678
2878.68	34.9981
2878.04	27.2165
2877.39	23.3248
2876.75	27.2081
2876.11	27.2039
2875.46	3.88566
2874.82	38.8506
2874.18	27.1912
2873.53	31.0709
2872.89	11.6498
2872.24	27.1786
2871.6	34.9385
2870.96	31.0516
2870.31	27.1659
2869.67	15.521
2869.02	23.2779
2868.38	19.3952
2867.73	0
2867.09	27.1449
2866.44	11.6317
2865.8	11.6299
2865.15	15.5041
2864.51	23.2526
2863.86	38.7483
2863.22	30.9939
2862.57	65.8518
2861.93	54.2224
2861.28	27.107
2860.64	46.462
2859.99	15.4849
2859.34	23.2238
2858.7	34.8303
2858.05	27.086
2857.41	-3.86883
2856.76	19.3411
2856.11	23.2058
2855.47	7.73405
2854.82	27.065
2854.17	19.3291
2853.53	11.5957
2852.88	38.6463
2852.23	23.1842
2851.59	3.86343
2850.94	11.5885
2850.29	34.76
2849.64	30.893
2849	3.86103
2848.35	30.8834
2847.7	15.4393
2847.05	19.2962
2846.41	15.4345
2845.76	27.0062
2845.11	7.71486
2844.46	7.71367
2843.81	0
2843.17	19.2782
2842.52	19.2752
2841.87	3.85444
2841.22	30.8307
2840.57	23.1194
2839.92	0
2839.27	7.70408
2838.62	30.8115
2837.97	23.1051
2837.32	15.401
2836.68	46.1958
2836.03	11.5471
2835.38	30.7876
2834.73	7.69571
2834.08	7.69451
2833.43	7.69331
2832.78	34.6145
2832.13	0
2831.48	15.3795
2830.83	3.84427
2830.18	7.68734
2829.53	30.7446
2828.87	19.2124
2828.22	3.84187
2827.57	34.5715
2826.92	3.84068
2826.27	15.3603
2825.62	3.83949
2824.97	26.8722
2824.32	26.868
2823.67	15.3508
2823.01	11.5113
2822.36	26.8555
2821.71	19.1795
2821.06	42.1884
2820.41	7.66942
2819.76	42.1752
2819.1	26.8346
2818.45	26.8304
2817.8	30.6586
2817.15	34.4855
2816.49	15.3245
2815.84	15.3221
2815.19	15.3197
2814.54	15.3174
2813.88	15.315
2813.23	15.3126
2812.58	0
2811.92	34.4426
2811.27	15.3054
2810.62	19.1288
2809.96	7.65034
2809.31	19.1229
2808.66	15.2959
2808	30.587
2807.35	26.7595
2806.69	26.7553
2806.04	15.2864
2805.38	15.284
2804.73	38.204
2804.08	3.81981
2803.42	15.2769
2802.77	22.9117
2802.11	15.2721
2801.46	11.4523
2800.8	19.0842
2800.15	30.5299
2799.49	11.4469
2798.84	19.0752
2798.18	7.62891
2797.53	30.5109
2796.87	22.8796
2796.21	30.5014
2795.56	30.4966
2794.9	22.8689
2794.25	22.8653
2793.59	38.1029
2792.93	7.61939
2792.28	19.0455
2791.62	7.61702
2790.96	15.2317
2790.31	19.0366
2789.65	-3.80673
2788.99	30.4491
2788.34	0
2787.68	7.60989
2787.02	49.4566
2786.37	30.4301
2785.71	30.4253
2785.05	26.618
2784.39	30.4158
2783.74	15.2055
2783.08	22.8047
2782.42	3.8002
2781.76	26.5972
2781.1	22.7941
2780.45	41.7826
2779.79	18.9891
2779.13	7.59447
2778.47	18.9832
2777.81	26.5723
2777.15	11.3864
2776.5	-11.3846
2775.84	22.7656
2775.18	7.58735
2774.52	22.7585
2773.86	34.1324
2773.2	34.1271
2772.54	15.1652
2771.88	15.1629
2771.22	18.9506
2770.56	34.1058
2769.9	37.8894
2769.24	11.365
2768.58	22.7265
2767.92	18.9358
2767.26	41.6523
2766.6	18.9299
2765.94	18.9269
2765.28	34.0632
2764.62	30.2736
2763.96	37.8361
2763.3	18.9151
2762.64	7.56486
2761.98	30.2547
2761.31	7.56249
2760.65	11.342
2759.99	18.9003
2759.33	7.55895
2758.67	11.3366
2758.01	49.1178
2757.35	18.8885
2756.68	33.994
2756.02	33.9887
2755.36	22.6556
2754.7	11.326
2754.04	22.6485
2753.37	7.54831
2752.71	11.3207
2752.05	7.54595
2751.38	7.54477
2750.72	49.0333
2750.06	15.0848
2749.4	7.54123
2748.73	11.3101
2748.07	33.9249
2747.41	22.6131
2746.74	15.073
2746.08	7.53533
2745.42	37.6707
2744.75	37.6648
2744.09	11.2977
2743.42	11.2959
2742.76	52.706
2742.1	0
2741.43	26.3448
2740.77	15.0518
2740.1	33.8612
2739.44	33.8559
2738.77	7.52236
2738.11	33.8453
2737.44	22.56
2736.78	26.3159
2736.11	37.5882
2735.45	7.51647
2734.78	18.7882
2734.12	30.0565
2733.45	33.8082
2732.79	22.5353
2732.12	18.7765
2731.46	18.7735
2730.79	26.2788
2730.12	26.2747
2729.46	41.2823
2728.79	26.2664
2728.12	22.5106
2727.46	41.2629
2726.79	15.0023
2726.12	33.75
2725.46	18.747
2724.79	22.4929
2724.12	18.7412
2723.46	44.9717
2722.79	0
2722.12	33.7182
2721.46	22.4753
2720.79	29.9624
2720.12	18.7235
2719.45	14.9765
2718.78	29.9483
2718.12	33.6865
2717.45	26.1965
2716.78	26.1924
2716.11	14.9647
2715.44	14.9624
2714.78	18.7
2714.11	29.9154
2713.44	11.2165
2712.77	48.5972
2712.1	-3.73766
2711.43	29.8966
2710.76	22.4189
2710.09	18.6795
2709.42	14.9413
2708.75	37.3473
2708.09	22.4049
2707.42	14.9342
2706.75	18.6648
2706.08	26.1267
2705.41	3.7318
2704.74	29.8497
2704.07	41.0369
2703.4	18.6502
2702.73	33.5651
2702.06	29.8309
2701.38	7.45656
2700.71	29.8216
2700.04	-3.72711
2699.37	18.6326
2698.7	29.8075
2698.03	0
2697.36	22.3486
2696.69	26.0693
2696.02	22.3416
2695.34	14.8921
2694.67	14.8897
2694	14.8874
2693.33	40.9338
2692.66	37.2067
2691.99	29.7607
2691.31	22.317
2690.64	22.3135
2689.97	22.31
2689.3	29.742
2688.62	22.303
2687.95	22.2995
2687.28	33.444
2686.61	22.2925
2685.93	40.8631
2685.26	25.9997
2684.59	33.4229
2683.91	29.7046
2683.24	18.5624
2682.57	14.8476
2681.89	25.9792
2681.22	14.8429
2680.55	22.2609
2679.87	11.1287
2679.2	22.2539
2678.52	18.542
2677.85	3.70782
2677.17	14.8289
2676.5	18.5333
2675.83	18.5303
2675.15	14.8219
2674.48	37.049
2673.8	22.2259
2673.13	18.5187
2672.45	7.4063
2671.78	22.2154
2671.1	22.2119
2670.42	37.014
2669.75	25.9057
2669.07	44.4028
2668.4	22.1979
2667.72	22.1944
2667.05	25.8894
2666.37	22.1874
2665.69	7.39465
2665.02	22.1804
2664.34	33.2654
2663.66	22.1735
2662.99	33.2549
2662.31	25.8609
2661.63	29.5506
2660.96	25.8527
2660.28	51.6973
2659.6	29.5367
2658.93	7.383
2658.25	22.1455
2657.57	22.142
2656.89	29.518
2656.22	0
2655.54	44.2631
2654.86	0
2654.18	-3.68743
2653.5	36.8685
2652.83	25.8039
2652.15	14.7427
2651.47	25.7957
2650.79	22.1071
2650.11	25.7876
2649.43	25.7835
2648.76	18.4139
2648.08	33.1398
2647.4	14.7265
2646.72	14.7241
2646.04	51.5264
2645.36	36.7987
2644.68	25.7551
2644	29.4297
2643.32	-3.67813
2642.64	7.3551
2641.96	25.7388
2641.28	22.0583
2640.6	25.7307
2639.92	51.4532
2639.24	36.7465
2638.56	0
2637.88	0
2637.2	36.7291
2636.52	11.017
2635.84	33.0458
2635.16	33.0405
2634.47	44.0471
2633.79	55.0502
2633.11	29.3555
2632.43	25.682
2631.75	33.0145
2631.07	36.6769
2630.39	22.0027
2629.7	32.9988
2629.02	21.9957
2628.34	21.9923
2627.66	3.6648
2626.98	29.3137
2626.29	25.6455
2625.61	10.9892
2624.93	25.6374
2624.25	14.6476
2623.56	14.6453
2622.88	32.9467
2622.2	3.66017
2621.51	29.2767
2620.83	21.954
2620.15	25.609
2619.46	51.2099
2618.78	32.9155
2618.1	21.9402
2617.41	25.5928
2616.73	21.9332
2616.04	36.5496
2615.36	36.5438
2614.68	32.8842
2613.99	21.9194
2613.31	32.8738
2612.62	21.9124
2611.94	21.909
2611.25	21.9055
2610.57	32.853
2609.88	32.8478
2609.2	40.141
2608.51	32.8374
2607.83	47.4243
2607.14	47.4168
2606.46	47.4093
2605.77	14.5852
2605.09	36.4572
2604.4	25.516
2603.71	7.28913
2603.03	7.28797
2602.34	29.1473
2601.66	29.1427
2600.97	7.28451
2600.28	32.7751
2599.6	25.4877
2598.91	32.7647
2598.22	25.4796
2597.54	3.63937
2596.85	25.4716
2596.16	14.5529
2595.47	25.4635
2594.79	18.1853
2594.1	29.0919
2593.41	32.7232
2592.72	32.718
2592.04	47.2519
2591.35	29.0735
2590.66	43.6033
2589.97	3.63303
2589.28	47.222
2588.6	36.3188
2587.91	21.7878
2587.22	47.1995
2586.53	7.26031
2585.84	43.555
2585.15	29.032
2584.46	21.7706
2583.77	14.5114
2583.08	3.62728
2582.4	43.5204
2581.71	29.009
2581.02	25.3789
2580.33	25.3748
2579.64	25.3708
2578.95	21.743
2578.26	50.7256
2577.57	0
2576.88	43.4653
2576.19	18.1076
2575.5	32.5886
2574.81	18.1019
2574.12	21.7188
2573.42	10.8577
2572.73	3.61866
2572.04	28.9447
2571.35	21.7051
2570.66	36.1693
2569.97	25.3145
2569.28	28.9263
2568.59	36.1521
2567.89	36.1464
2567.2	18.0703
2566.51	10.8405
2565.82	32.5162
2565.13	54.1851
2564.43	28.8942
2563.74	10.8336
2563.05	36.1062
2562.36	43.3206
2561.66	3.60948
2560.97	10.8267
2560.28	43.2999
2559.59	21.6465
2558.89	32.4646
2558.2	32.4595
2557.51	28.8483
2556.81	25.2382
2556.12	14.4196
2555.43	43.2518
2554.73	28.83
2554.04	43.2381
2553.34	39.6286
2552.65	39.6223
2551.96	32.4131
2551.26	21.6053
2550.57	14.4012
2549.87	46.7966
2549.18	35.9916
2548.48	14.3944
2547.79	28.7842
2547.09	32.377
2546.4	32.3719
2545.7	35.963
2545.01	21.5744
2544.31	25.1661
2543.62	21.5675
2542.92	17.9701
2542.23	32.341
2541.53	43.1145
2540.83	17.9615
2540.14	17.9586
2539.44	39.5027
2538.75	7.18117
2538.05	28.7201
2537.35	21.5367
2536.66	3.58887
2535.96	43.0596
2535.26	43.0528
2534.57	21.5229
2533.87	21.5195
2533.17	32.2741
2532.48	28.6836
2531.78	39.4336
2531.08	14.3372
2530.38	3.58373
2529.68	32.2485
2528.99	14.3304
2528.29	46.5663
2527.59	25.0702
2526.89	39.3897
2526.19	3.58031
2525.5	10.7392
2524.8	39.3709
2524.1	46.5218
2523.4	21.4682
2522.7	28.6197
2522	32.192
2521.3	10.729
2520.6	50.0605
2519.91	39.327
2519.21	28.5969
2518.51	39.3144
2517.81	46.4551
2517.11	42.8748
2516.41	28.5786
2515.71	25.0023
2515.01	24.9983
2514.31	39.2768
2513.61	24.9904
2512.91	49.9728
2512.21	28.5513
2511.51	0
2510.8	28.5422
2510.1	21.4032
2509.4	39.233
2508.7	24.9625
2508	35.655
2507.3	35.6493
2506.6	42.7724
2505.9	21.3828
2505.19	24.9426
2504.49	10.688
2503.79	35.6209
2503.09	24.9306
2502.39	14.2438
2501.69	14.2415
2500.98	28.4785
2500.28	32.0332
2499.58	10.676
2498.88	28.4649
2498.17	46.2481
2497.47	49.7976
2496.77	24.8948
2496.06	56.8934
2495.36	49.7738
2494.66	14.2188
2493.95	31.9872
2493.25	10.6607
2492.55	35.53
2491.84	35.5243
2491.14	21.3112
2490.44	21.3078
2489.73	42.6088
2489.03	24.8511
2488.32	39.0456
2487.62	21.2942
2486.91	31.9362
2486.21	39.0268
2485.5	42.5679
2484.8	14.187
2484.09	24.8234
2483.39	24.8194
2482.68	28.3605
2481.98	42.5339
2481.27	38.9832
2480.57	31.8903
2479.86	46.0563
2479.16	31.8801
2478.45	46.0416
2477.74	31.8699
2477.04	35.4053
2476.33	28.3197
2475.63	21.2364
2474.92	42.466
2474.21	21.2296
2473.51	45.9901
2472.8	42.4456
2472.09	28.2925
2471.39	35.36
2470.68	42.4252
2469.97	10.6046
2469.26	31.8087
2468.56	38.8711
2467.85	42.3981
2467.14	45.9239
2466.43	42.3845
2465.73	42.3777
2465.02	52.9637
2464.31	52.9552
2463.6	49.4169
2462.89	28.2337
2462.18	35.2865
2461.48	24.6966
2460.77	28.2202
2460.06	24.6887
2459.35	31.7375
2458.64	31.7324
2457.93	24.6768
2457.22	31.7223
2456.51	38.7655
2455.8	45.8064
2455.09	63.4141
2454.38	52.8366
2453.67	28.175
2452.96	17.6066
2452.25	17.6037
2451.54	45.7624
2450.83	31.6766
2450.12	28.1524
2449.41	31.6664
2448.7	38.6972
2447.99	45.7257
2447.28	28.1344
2446.57	24.6137
2445.86	42.1881
2445.15	10.5453
2444.43	45.6891
2443.72	38.6538
2443.01	35.1342
2442.3	38.6414
2441.59	38.6352
2440.88	24.5821
2440.16	31.6005
2439.45	14.0424
2438.74	38.6104
2438.03	28.0758
2437.32	49.1248
2436.6	35.0835
2435.89	24.5545
2435.18	31.565
2434.46	31.56
2433.75	45.5793
2433.04	45.572
2432.32	38.5547
2431.61	42.0529
2430.9	7.0077
2430.18	35.0329
2429.47	35.0272
2428.76	28.0173
2428.04	28.0128
2427.33	35.0104
2426.61	24.5033
2425.9	6.99983
2425.19	48.9909
2424.47	34.9879
2423.76	27.9858
2423.04	76.9487
2422.33	48.9595
2421.61	17.4827
2420.9	24.4719
2420.18	24.4679
2419.47	41.9383
2418.75	41.9316
2418.04	41.9248
2417.32	48.9044
2416.6	38.4187
2415.89	17.4603
2415.17	55.8638
2414.46	34.9093
2413.74	38.3941
2413.02	34.8981
2412.31	52.3387
2411.59	34.8869
2410.87	31.3931
2410.16	31.3881
2409.44	41.844
2408.72	27.8915
2408.01	24.4012
2407.29	27.8826
2406.57	52.2714
2405.85	38.3262
2405.14	20.9018
2404.42	10.4492
2403.7	17.4126
2402.98	48.7474
2402.26	55.7024
2401.55	34.8084
2400.83	24.362
2400.11	34.7972
2399.39	59.1457
2398.67	38.2646
2397.95	34.7804
2397.23	31.2973
2396.51	38.2461
2395.8	38.24
2395.08	24.3306
2394.36	34.7524
2393.64	38.2215
2392.92	48.6377
2392.2	31.2621
2391.48	17.365
2390.76	59.0316
2390.04	52.0783
2389.32	41.6559
2388.6	27.7662
2387.88	10.4106
2387.16	48.5751
2386.44	62.4437
2385.72	52.028
2384.99	48.5517
2384.27	38.1416
2383.55	41.6023
2382.83	38.1293
2382.11	31.1917
2381.39	10.3955
2380.67	34.6462
2379.95	48.4969
2379.22	27.7081
2378.5	34.6295
2377.78	41.5487
2377.06	48.4657
2376.33	48.4579
2375.61	31.1465
2374.89	51.9024
2374.17	44.9748
2373.44	48.4266
2372.72	6.91697
2372	20.7476
2371.28	20.7442
2370.55	41.4818
2369.83	41.4751
2369.11	69.114
2368.38	48.372
2367.66	55.2733
2366.93	44.9023
2366.21	31.0812
2365.49	20.7175
2364.76	55.2377
2364.04	44.8734
2363.31	17.2562
2362.59	34.5068
2361.86	44.8517
2361.14	41.3948
2360.42	17.2451
2359.69	51.7269
2358.97	65.5101
2358.24	37.9208
2357.51	20.6807
2356.79	34.4623
2356.06	72.3592
2355.34	41.3414
2354.61	75.7804
2353.89	48.2161
2353.16	44.7648
2352.43	55.0863
2351.71	6.88468
2350.98	24.0925
2350.26	34.4123
2349.53	27.5254
2348.8	61.9221
2348.07	48.1538
2347.35	61.902
2346.62	24.0691
2345.89	34.3789
2345.17	34.3734
2344.44	44.6781
2343.71	30.926
2342.98	58.4064
2342.26	44.6565
2341.53	51.5184
2340.8	34.34
2340.07	48.0683
2339.34	48.0605
2338.62	44.6204
2337.89	34.3178
2337.16	54.8997
2336.43	54.8908
2335.7	24.0108
2334.97	65.1617
2334.24	34.2901
2333.51	34.2846
2332.78	20.5674
2332.05	13.7094
2331.33	54.8287
2330.6	58.246
2329.87	34.2568
2329.14	30.8262
2328.41	17.1229
2327.68	75.3285
2326.95	51.352
2326.22	44.4979
2325.48	51.3354
2324.75	37.6399
2324.02	20.5275
2323.29	30.7863
2322.56	37.6216
2321.83	47.8743
2321.1	54.7046
2320.37	41.0218
2319.64	51.2689
2318.9	34.1738
2318.17	34.1682
2317.44	47.8278
2316.71	47.82
2315.98	47.8123
2315.25	37.5607
2314.51	64.8671
2313.78	17.0675
2313.05	27.3036
2312.32	23.8868
2311.58	40.9421
2310.85	47.7581
2310.12	40.9289
2309.38	44.3324
2308.65	34.0963
2307.92	47.7271
2307.18	68.1706
2306.45	44.3037
2305.72	57.9262
2304.98	51.1031
2304.25	47.6885
2303.51	51.0865
2302.78	64.6991
2302.05	68.0933
2301.31	54.4658
2300.58	57.8605
2299.84	51.0451
2299.11	61.2442
2298.37	44.2247
2297.64	54.4216
2296.9	68.016
2296.17	51.0037
2295.43	47.5958
2294.7	57.7855
2293.96	30.5873
2293.23	40.7765
2292.49	33.9749
2291.75	44.1602
2291.02	40.7567
2290.28	47.5417
2289.55	47.534
2288.81	57.7105
2288.07	57.7011
2287.34	40.7236
2286.6	33.9308
2285.86	44.1029
2285.12	67.8396
2284.39	54.2629
2283.65	40.6905
2282.91	61.0259
2282.18	50.8467
2281.44	33.8923
2280.7	60.9962
2279.96	54.21
2279.22	71.1391
2278.49	54.1924
2277.75	60.9566
2277.01	54.1748
2276.27	44.0099
2275.53	40.6179
2274.79	54.1484
2274.05	60.9071
2273.32	37.2149
2272.58	54.122
2271.84	47.3491
2271.1	40.5783
2270.36	50.7147
2269.62	27.0434
2268.88	60.8378
2268.14	30.414
2267.4	43.9241
2266.66	47.2952
2265.92	50.6652
2265.18	43.9027
2264.44	57.4019
2263.7	50.6405
2262.96	43.8813
2262.22	33.7493
2261.48	40.4926
2260.74	57.3552
2259.99	50.5993
2259.25	37.1001
2258.51	50.5829
2257.77	47.203
2257.03	40.4531
2256.29	60.6698
2255.55	43.8099
2254.8	40.4334
2254.06	33.689
2253.32	60.6303
2252.58	30.3102
2251.83	57.2433
2251.09	47.1339
2250.35	47.1262
2249.61	50.4842
2248.86	70.6663
2248.12	43.7387
2247.38	37.0036
2246.63	36.9976
2245.89	57.1688
2245.15	40.3479
2244.4	36.9795
2243.66	67.2246
2242.92	53.7709
2242.17	70.5628
2241.43	57.113
2240.68	43.6675
2239.94	47.0189
2239.19	43.6533
2238.45	53.7183
2237.7	43.639
2236.96	43.6319
2236.21	50.3363
2235.47	57.0385
2234.72	57.0292
2233.98	43.6035
2233.23	60.3642
2232.49	67.0604
2231.74	43.5822
2231	56.9828
2230.25	80.4331
2229.5	73.7184
2228.76	46.904
2228.01	43.5466
2227.27	46.8887
2226.52	50.2297
2225.77	60.2659
2225.03	46.8658
2224.28	56.8992
2223.53	60.2364
2222.78	46.8429
2222.04	43.4898
2221.29	46.8276
2220.54	63.5413
2219.79	60.1872
2219.05	56.8342
2218.3	60.1676
2217.55	46.7894
2216.8	40.0986
2216.05	53.4561
2215.31	76.8306
2214.56	43.4189
2213.81	56.7693
2213.06	56.76
2212.31	53.4125
2211.56	46.7283
2210.81	66.7438
2210.06	60.0596
2209.31	60.0498
2208.56	46.6978
2207.82	53.3602
2207.07	36.6791
2206.32	46.6749
2205.57	20.0003
2204.82	59.991
2204.07	66.6458
2203.31	46.6444
2202.56	49.968
2201.81	63.2824
2201.06	66.6022
2200.31	36.6252
2199.56	73.2385
2198.81	33.2848
2198.06	33.2793
2197.31	43.2561
2196.56	49.9027
2195.8	66.526
2195.05	33.2576
2194.3	53.2034
2193.55	46.5454
2192.8	43.2136
2192.04	39.883
2191.29	73.1069
2190.54	59.8049
2189.79	49.8293
2189.03	39.8569
2188.28	56.4547
2187.53	79.6877
2186.78	59.756
2186.02	63.0655
2185.27	59.7365
2184.52	72.9993
2183.76	39.8113
2183.01	56.3901
2182.25	53.0643
2181.5	39.7917
2180.75	46.4161
2179.99	72.9276
2179.24	66.287
2178.48	53.0209
2177.73	49.699
2176.97	56.3163
2176.22	49.6827
2175.47	43.0513
2174.71	36.422
2173.95	49.6583
2173.2	59.5802
2172.44	76.1178
2171.69	59.5607
2170.93	49.6257
2170.18	52.9255
2169.42	49.6095
2168.67	52.9081
2167.91	52.8994
2167.15	52.8908
2166.4	52.8821
2165.64	36.3505
2164.88	52.8648
2164.13	85.8912
2163.37	49.5445
2162.61	66.0485
2161.86	23.1132
2161.1	39.6161
2160.34	56.1136
2159.58	49.5039
2158.83	75.8935
2158.07	72.5819
2157.31	62.6741
2156.55	46.1733
2155.79	32.9755
2155.04	82.4253
2154.28	49.4471
2153.52	59.3268
2152.76	56.0216
2152	69.1918
2151.24	52.7089
2150.48	59.2878
2149.72	26.3458
2148.96	23.0488
2148.21	42.7979
2147.45	85.5818
2146.69	39.4928
2145.93	55.939
2145.17	59.2198
2144.41	62.4995
2143.65	59.2003
2142.89	46.0371
2142.13	78.9078
2141.37	95.3313
2140.6	49.3012
2139.84	42.7207
2139.08	49.285
2138.32	52.562
2137.56	72.2609
2136.8	49.2607
2136.04	49.2526
2135.28	68.9424
2134.52	68.931
2133.75	32.8189
2132.99	75.4711
2132.23	68.8971
2131.47	85.2871
2130.71	72.1542
2129.94	59.0255
2129.18	52.4585
2128.42	68.8405
2127.65	72.1067
2126.89	95.0342
2126.13	55.7005
2125.37	55.6914
2124.6	62.2331
2123.84	94.9717
2123.08	81.8587
2122.31	62.2024
2121.55	58.9189
2120.78	62.1819
2120.02	45.8107
2119.26	62.1614
2118.49	62.1512
2117.73	52.3293
2116.96	65.4008
2116.2	55.5815
2115.43	52.3034
2114.67	68.637
2113.9	71.8936
2113.14	58.8123
2112.37	42.4686
2111.61	52.2604
2110.84	55.5175
2110.08	75.0996
2109.31	65.2933
2108.55	75.0749
2107.78	68.5354
2107.01	68.5241
2106.25	75.0378
2105.48	61.9776
2104.71	65.2288
2103.95	75.0008
2103.18	42.3847
2102.41	65.1966
2101.65	65.1858
2100.88	68.4338
2100.11	78.1972
2099.34	61.8959
2098.58	71.6572
2097.81	58.6189
2097.04	65.1214
2096.27	71.6218
2095.51	71.6099
2094.74	45.5625
2093.97	61.8246
2093.2	52.0542
2092.43	71.5628
2091.66	58.5417
2090.89	78.0427
2090.13	71.5274
2089.36	45.5099
2088.59	45.5024
2087.82	77.9913
2087.05	81.2275
2086.28	71.4684
2085.51	64.9606
2084.74	74.6923
2083.97	61.6922
2083.2	77.9141
2082.43	42.1965
2081.66	42.1896
2080.89	68.1411
2080.12	61.6413
2079.35	61.6311
2078.58	48.6481
2077.81	38.9121
2077.03	77.8113
2076.26	103.731
2075.49	64.8214
2074.72	61.5701
2073.95	68.04
2073.18	77.7471
2072.41	74.4954
2071.63	74.4831
2070.86	71.2329
2070.09	61.5092
2069.32	64.7358
2068.54	55.0163
2067.77	64.7144
2067	93.8204
2066.23	54.9891
2065.45	67.9165
2064.68	61.4381
2063.91	45.2627
2063.13	77.5804
2062.36	54.9437
2061.59	51.7032
2060.81	67.8492
2060.04	61.3772
2059.26	80.7461
2058.49	80.7328
2057.72	54.8892
2056.94	51.6519
2056.17	48.4157
2055.39	70.9979
2054.62	58.0796
2053.84	77.4266
2053.07	64.5115
2052.29	51.6007
2051.52	61.2657
2050.74	99.9433
2049.97	70.9158
2049.19	80.5728
2048.41	77.3371
2047.64	32.2184
2046.86	77.3115
2046.09	77.2987
2045.31	90.1669
2044.53	83.7125
2043.76	80.4795
2042.98	54.717
2042.2	51.4898
2041.43	80.4396
2040.65	61.1239
2039.87	77.1964
2039.09	73.9677
2038.32	67.5245
2037.54	90.0178
2036.76	90.0029
2035.98	70.7048
2035.21	54.6265
2034.43	64.2558
2033.65	54.6084
2032.87	93.1401
2032.09	54.5903
2031.31	44.9493
2030.53	60.9925
2029.76	51.3536
2028.98	70.5995
2028.2	60.9622
2027.42	76.9921
2026.64	67.3569
2025.86	32.0694
2025.08	80.1603
2024.3	54.5
2023.52	73.723
2022.74	73.7108
2021.96	67.29
2021.18	64.0751
2020.4	86.487
2019.62	67.2565
2018.84	60.8411
2018.06	83.2424
2017.28	83.2286
2016.49	70.4125
2015.71	92.8011
2014.93	63.9902
2014.15	70.3775
2013.37	57.572
2012.59	70.3541
2011.81	83.132
2011.02	70.3308
2010.24	67.1228
2009.46	54.3285
2008.68	57.5148
2007.89	73.4789
2007.11	70.2725
2006.33	54.2925
2005.55	76.6354
2004.76	73.4301
2003.98	60.6496
2003.2	60.6395
2002.41	67.0115
2001.63	60.6194
2000.84	66.9893
2000.06	82.9253
1999.28	86.1004
1998.49	102.028
1997.71	63.7569
1996.92	86.0576
1996.14	79.6697
1995.36	73.2839
1994.57	76.4575
1993.79	86.0004
1993	54.1394
1992.22	60.4987
1991.43	50.9378
1990.64	108.225
1989.86	76.3813
1989.07	70.0046
1988.29	69.9929
1987.5	66.8003
1986.72	95.4132
1985.93	66.7781
1985.14	63.5876
1984.36	69.9348
1983.57	76.2798
1982.78	60.3781
1982	85.7863
1981.21	82.5952
1980.42	88.9339
1979.64	63.5137
1978.85	82.554
1978.06	73.0164
1977.27	98.3971
1976.49	92.0336
1975.7	76.1531
1974.91	53.9328
1974.12	50.7518
1973.33	72.9436
1972.54	88.7861
1971.76	91.9417
1970.97	76.0771
1970.18	79.2337
1969.39	101.402
1968.6	53.861
1967.81	91.8653
1967.02	91.85
1966.23	79.1678
1965.44	79.1546
1964.65	82.3071
1963.86	63.3026
1963.07	91.7735
1962.28	82.266
1961.49	98.0701
1960.7	107.543
1959.91	88.5499
1959.12	82.2112
1958.33	94.8433
1957.54	88.5057
1956.75	82.1701
1955.96	63.1973
1955.17	66.3461
1954.37	69.4938
1953.58	75.7988
1952.79	72.6284
1952	66.3019
1951.21	94.7012
1950.42	88.373
1949.62	72.58
1948.83	78.8782
1948.04	113.566
1947.25	59.9274
1946.45	88.2994
1945.66	69.3665
1944.87	88.2699
1944.07	94.5592
1943.28	81.9376
1942.49	72.4712
1941.69	97.6623
1940.9	72.447
1940.11	75.5843
1939.31	91.3158
1938.52	125.932
1937.72	78.6942
1936.93	66.0921
1936.14	91.2548
1935.34	47.1929
1934.55	84.933
1933.75	106.935
1932.96	100.628
1932.16	113.187
1931.37	97.4506
1930.57	69.147
1929.77	84.848
1928.98	69.1239
1928.18	94.2441
1927.39	81.6646
1926.59	97.353
1925.79	75.3575
1925	84.763
1924.2	81.61
1923.41	100.426
1922.61	109.823
1921.81	100.393
1921.01	112.923
1920.22	103.495
1919.42	109.75
1918.62	78.3795
1917.83	106.578
1917.03	109.695
1916.23	115.943
1915.43	109.658
1914.63	97.1093
1913.84	87.697
1913.04	93.9454
1912.24	75.1437
1911.44	68.8702
1910.64	109.548
1909.84	65.7178
1909.04	90.738
1908.24	90.7228
1907.45	100.091
1906.65	78.1831
1905.85	90.6773
1905.05	109.42
1904.25	100.024
1903.45	93.757
1902.65	112.49
1901.85	84.3531
1901.05	99.9573
1900.25	71.8323
1899.45	109.292
1898.64	96.785
1897.84	81.1609
1897.04	90.5105
1896.24	121.701
1895.44	78.0002
1894.64	93.5846
1893.84	90.4499
1893.04	106.027
1892.23	121.599
1891.43	71.7001
1890.63	99.74
1889.83	77.9088
1889.03	74.7799
1888.22	105.921
1887.42	105.903
1886.62	118.342
1885.81	77.8436
1885.01	74.7173
1884.21	87.1556
1883.41	93.3654
1882.6	121.355
1881.8	102.667
1880.99	111.982
1880.19	87.0826
1879.39	87.068
1878.58	96.3806
1877.78	77.7132
1876.97	93.2403
1876.17	99.4396
1875.36	96.316
1874.56	111.832
1873.75	127.343
1872.95	102.478
1872.14	105.566
1871.34	71.4003
1870.53	86.9076
1869.73	102.41
1868.92	111.701
1868.12	111.682
1867.31	114.765
1866.5	89.9359
1865.7	86.8201
1864.89	117.808
1864.09	86.791
1863.28	108.471
1862.47	136.34
1861.67	105.336
1860.86	120.806
1860.05	117.689
1859.24	126.959
1858.44	120.745
1857.63	86.6745
1856.82	83.565
1856.01	123.779
1855.2	133.04
1854.4	108.27
1853.59	92.7876
1852.78	95.8644
1851.97	105.124
1851.16	95.8322
1850.35	95.8161
1849.54	105.071
1848.74	86.5145
1847.93	108.125
1847.12	95.7517
1846.31	123.53
1845.5	108.07
1844.69	120.401
1843.88	129.641
1843.07	114.188
1842.26	129.597
1841.45	117.235
1840.64	107.962
1839.83	120.28
1839.02	95.5909
1838.2	138.738
1837.39	126.384
1836.58	95.5427
1835.77	126.342
1834.96	107.835
1834.15	107.816
1833.34	126.278
1832.52	117.018
1831.71	98.5252
1830.9	95.4303
1830.09	104.648
1829.28	110.785
1828.46	135.381
1827.65	104.595
1826.84	104.577
1826.03	95.334
1825.21	116.841
1824.4	79.9306
1823.59	113.728
1822.77	116.782
1821.96	122.908
1821.14	116.743
1820.33	132.082
1819.52	107.49
1818.7	110.543
1817.89	85.9632
1817.07	110.506
1816.26	101.28
1815.44	85.9198
1814.63	128.858
1813.81	101.229
1813	128.815
1812.18	110.394
1811.37	122.639
1810.55	101.16
1809.74	128.728
1808.92	144.028
1808.11	94.9813
1807.29	98.0287
1806.47	140.893
1805.66	110.245
1804.84	85.7318
1804.02	122.453
1803.21	104.068
1802.39	104.05
1801.57	97.9131
1800.76	119.311
1799.94	128.468
1799.12	100.922
1798.3	128.424
1797.49	137.574
1796.67	88.644
1795.85	125.303
1795.03	94.7254
1794.21	119.151
1793.4	113.021
1792.58	128.273
1791.76	112.983
1790.94	128.229
1790.12	122.103
1789.3	91.5615
1788.48	131.216
1787.66	97.6326
1786.84	112.869
1786.02	115.9
1785.2	106.732
1784.38	115.86
1783.56	115.841
1782.74	124.965
1781.92	109.707
1781.1	121.876
1780.28	155.366
1779.46	140.11
1778.64	115.724
1777.82	100.48
1777	133.95
1776.18	124.796
1775.35	94.3423
1774.53	118.669
1773.71	124.733
1772.89	139.921
1772.07	112.526
1771.25	121.629
1770.42	94.2467
1769.6	106.39
1768.78	154.999
1767.96	121.547
1767.13	109.374
1766.31	115.431
1765.49	109.337
1764.66	139.684
1763.84	133.589
1763.02	115.352
1762.19	169.964
1761.37	160.832
1760.54	127.43
1759.72	124.375
1758.9	154.684
1758.07	115.235
1757.25	118.248
1756.42	130.354
1755.6	139.425
1754.77	136.371
1753.95	109.078
1753.12	130.266
1752.3	121.157
1751.47	148.392
1750.65	157.451
1749.82	127.15
1748.99	130.155
1748.17	108.949
1747.34	130.111
1746.52	114.963
1745.69	124.018
1744.86	117.948
1744.04	120.952
1743.21	120.931
1742.38	139.047
1741.55	123.913
1740.73	132.957
1739.9	129.913
1739.07	138.953
1738.24	175.172
1737.42	132.867
1736.59	135.863
1735.76	144.896
1734.93	126.763
1734.1	153.9
1733.27	141.806
1732.45	156.865
1731.62	111.596
1730.79	147.765
1729.96	135.679
1729.13	162.788
1728.3	156.732
1727.47	147.665
1726.64	144.626
1725.81	135.564
1724.98	129.517
1724.15	153.587
1723.32	138.506
1722.49	141.493
1721.66	138.459
1720.83	141.445
1720	114.341
1719.17	129.363
1718.34	123.326
1717.5	141.349
1716.67	126.291
1715.84	144.308
1715.01	156.307
1714.18	180.323
1713.35	111.181
1712.51	105.153
1711.68	138.178
1710.85	147.164
1710.02	129.122
1709.18	132.103
1708.35	114.069
1707.52	138.06
1706.69	123.033
1705.85	141.014
1705.02	137.99
1704.18	122.97
1703.35	149.938
1702.52	146.914
1701.68	146.889
1700.85	137.873
1700.02	131.856
1699.18	134.83
1698.35	161.768
1697.51	158.745
1696.68	134.761
1695.84	122.761
1695.01	164.652
1694.17	122.72
1693.34	128.684
1692.5	137.638
1691.66	128.64
1690.83	146.565
1689.99	152.521
1689.16	164.456
1688.32	152.469
1687.48	158.422
1686.65	152.418
1685.81	182.272
1684.97	158.341
1684.14	173.249
1683.3	170.233
1682.46	155.274
1681.63	176.146
1680.79	173.131
1679.95	125.35
1679.11	187.992
1678.27	181.993
1677.44	167.047
1676.6	190.879
1675.76	166.991
1674.92	181.869
1674.08	181.838
1673.24	152.003
1672.41	151.977
1671.57	193.663
1670.73	172.778
1669.89	137.007
1669.05	163.785
1668.21	178.644
1667.37	166.706
1666.53	220.253
1665.69	178.553
1664.85	181.498
1664.01	181.467
1663.17	190.359
1662.33	193.301
1661.49	214.081
1660.65	172.425
1659.8	196.174
1658.96	178.31
1658.12	193.136
1657.28	199.045
1656.44	196.04
1655.6	193.037
1654.75	216.759
1653.91	195.94
1653.07	157.319
1652.23	169.163
1651.39	186.938
1650.54	213.607
1649.7	177.975
1648.86	207.603
1648.01	189.776
1647.17	186.779
1646.33	180.818
1645.48	163.005
1644.64	160.014
1643.8	189.614
1642.95	171.808
1642.11	180.664
1641.26	216.167
1640.42	180.602
1639.57	222.014
1638.73	177.581
1637.89	180.51
1637.04	189.355
1636.2	207.072
1635.35	212.952
1634.5	201.087
1633.66	168.529
1632.81	183.281
1631.97	206.895
1631.12	189.129
1630.28	159.55
1629.43	153.614
1628.58	159.495
1627.74	165.374
1626.89	180.109
1626.04	156.462
1625.2	168.241
1624.35	168.212
1623.5	171.134
1622.65	174.055
1621.81	182.874
1620.96	147.454
1620.11	194.606
1619.26	176.884
1618.41	191.592
1617.57	147.353
1616.72	170.9
1615.87	176.763
1615.02	164.951
1614.17	147.252
1613.32	161.95
1612.47	179.586
1611.62	188.386
1610.77	173.639
1609.92	155.954
1609.07	173.579
1608.23	155.901
1607.37	182.343
1606.52	173.49
1605.67	155.82
1604.82	199.886
1603.97	155.767
1603.12	152.802
1602.27	149.838
1601.42	176.25
1600.57	158.597
1599.72	173.253
1598.87	152.671
1598.01	146.774
1597.16	140.879
1596.31	184.872
1595.46	146.699
1594.61	184.809
1593.75	175.978
1592.9	178.88
1592.05	146.598
1591.2	152.436
1590.34	134.824
1589.49	161.175
1588.64	184.587
1587.78	169.908
1586.93	149.376
1586.08	172.778
1585.22	178.604
1584.37	166.864
1583.51	166.835
1582.66	178.513
1581.81	158
1580.95	163.824
1580.1	163.796
1579.24	154.995
1578.39	137.425
1577.53	166.635
1576.68	169.53
1575.82	175.345
1574.97	160.706
1574.11	160.678
1573.25	186.939
1572.4	172.305
1571.54	160.595
1570.68	198.52
1569.83	160.54
1568.97	189.697
1568.11	166.321
1567.26	175.045
1566.4	163.347
1565.54	166.235
1564.69	169.123
1563.83	172.009
1562.97	142.83
1562.11	180.693
1561.26	148.609
1560.4	180.631
1559.54	166.035
1558.68	148.533
1557.82	171.802
1556.96	168.861
1556.1	171.743
1555.25	174.624
1554.39	168.774
1553.53	157.108
1552.67	162.898
1551.81	168.687
1550.95	197.737
1550.09	200.611
1549.23	188.949
1548.37	145.32
1547.51	177.26
1546.65	171.419
1545.79	168.484
1544.93	174.264
1544.07	180.042
1543.2	159.687
1542.34	156.757
1541.48	174.144
1540.62	171.212
1539.76	182.788
1538.9	171.153
1538.03	214.63
1537.17	156.595
1536.31	188.461
1535.45	159.44
1534.59	191.295
1533.72	185.466
1532.86	194.127
1532	170.918
1531.13	182.474
1530.27	176.651
1529.41	179.516
1528.54	162.115
1527.68	188.137
1526.82	147.59
1525.95	164.925
1525.09	211.183
1524.22	196.685
1523.36	179.299
1522.49	179.269
1521.63	182.129
1520.76	193.659
1519.9	187.846
1519.03	167.587
1518.17	179.114
1517.3	193.525
1516.44	167.501
1515.57	187.684
1514.71	210.747
1513.84	170.3
1512.97	187.587
1512.11	178.898
1511.24	173.097
1510.37	187.49
1509.51	175.922
1508.64	175.891
1507.77	204.691
1506.91	147.006
1506.04	167.154
1505.17	178.651
1504.3	187.263
1503.43	167.068
1502.57	187.199
1501.7	184.287
1500.83	184.255
1499.96	172.71
1499.09	227.362
1498.22	178.405
1497.36	215.775
1496.49	163.961
1495.62	172.56
1494.75	189.784
1493.88	209.876
1493.01	206.965
1492.14	204.056
1491.27	204.02
1490.4	172.382
1489.53	172.352
1488.66	221.147
1487.79	178.036
1486.92	189.489
1486.05	209.55
1485.17	183.683
1484.3	200.869
1483.43	183.62
1482.56	232.354
1481.69	209.369
1480.82	186.392
1479.94	217.898
1479.07	240.793
1478.2	240.751
1477.33	292.29
1476.46	272.184
1475.58	269.272
1474.71	300.731
1473.84	335.042
1472.96	289.174
1472.09	294.85
1471.22	329.144
1470.34	297.609
1469.47	257.502
1468.6	286.064
1467.72	265.993
1466.85	240.21
1465.97	277.338
1465.1	260.138
1464.22	277.242
1463.35	242.902
1462.47	277.146
1461.6	245.674
1460.72	251.344
1459.85	237.022
1458.97	231.271
1458.1	245.504
1457.22	236.899
1456.34	222.59
1455.47	233.964
1454.59	236.776
1453.72	231.031
1452.84	233.842
1451.96	239.504
1451.08	216.657
1450.21	239.421
1449.33	270.727
1448.45	210.846
1447.58	236.448
1446.7	239.255
1445.82	236.366
1444.94	219.241
1444.06	210.663
1443.19	199.241
1442.31	236.202
1441.43	261.769
1440.55	216.207
1439.67	210.481
1438.79	213.288
1437.91	227.468
1437.03	230.271
1436.15	221.704
1435.27	187.563
1434.39	227.31
1433.51	221.589
1432.63	235.752
1431.75	230.031
1430.87	241.349
1429.99	235.629
1429.11	221.396
1428.23	212.844
1427.35	215.645
1426.47	243.977
1425.59	221.243
1424.71	218.368
1423.82	209.824
1422.94	229.632
1422.06	195.579
1421.18	215.383
1420.3	229.513
1419.41	203.976
1418.53	237.931
1417.65	218.065
1416.76	192.544
1415.88	201.003
1415	175.493
1414.11	237.724
1413.23	212.217
1412.35	234.812
1411.46	189.514
1410.58	237.559
1409.7	229.035
1408.81	226.168
1407.93	211.996
1407.04	189.35
1406.16	200.619
1405.27	214.71
1404.39	220.322
1403.5	245.701
1402.62	183.538
1401.73	237.146
1400.85	206.055
1399.96	225.775
1399.07	200.34
1398.19	203.127
1397.3	228.478
1396.41	217.157
1395.53	231.218
1394.64	236.816
1393.75	245.231
1392.87	256.462
1391.98	247.964
1391.09	236.652
1390.21	247.878
1389.32	264.732
1388.43	242.16
1387.54	233.672
1386.65	267.409
1385.77	281.434
1384.88	239.177
1383.99	261.642
1383.1	275.661
1382.21	244.677
1381.32	258.694
1380.43	281.14
1379.54	227.684
1378.65	281.042
1377.76	252.894
1376.87	292.182
1375.98	255.615
1375.09	303.314
1374.2	275.181
1373.31	320.053
1372.42	280.699
1371.53	283.457
1370.64	252.541
1369.75	235.664
1368.86	255.258
1367.97	294.478
1367.08	280.406
1366.18	283.161
1365.29	274.702
1364.4	308.285
1363.51	260.596
1362.61	263.352
1361.72	299.72
1360.83	282.864
1359.94	277.215
1359.04	254.769
1358.15	240.729
1357.26	251.881
1356.36	260.232
1355.47	262.984
1354.58	254.547
1353.68	304.844
1352.79	265.643
1351.89	251.618
1351	243.188
1350.11	259.914
1349.21	262.663
1348.32	262.617
1347.42	262.571
1346.53	279.283
1345.63	259.687
1344.74	248.475
1343.84	251.223
1342.94	240.015
1342.05	248.344
1341.15	209.242
1340.26	211.995
1339.36	242.636
1338.46	248.171
1337.57	253.703
1336.67	250.872
1335.77	250.828
1334.87	250.784
1333.98	273.028
1333.08	245.125
1332.18	233.942
1331.28	239.47
1330.39	250.565
1329.49	217.118
1328.59	261.61
1327.69	239.303
1326.79	222.569
1325.89	253.127
1325	261.427
1324.1	216.89
1323.2	261.335
1322.3	219.594
1321.4	261.244
1320.5	213.96
1319.6	255.596
1318.7	219.441
1317.8	230.511
1316.9	244.355
1316	235.983
1315.1	244.269
1314.2	199.821
1313.3	235.859
1312.39	221.946
1311.49	230.229
1310.59	230.188
1309.69	205.192
1308.79	268.921
1307.89	216.208
1306.98	249.427
1306.08	257.696
1305.18	235.488
1304.28	218.827
1303.37	260.33
1302.47	263.054
1301.57	246.397
1300.67	243.585
1299.76	243.543
1298.86	279.472
1297.95	318.154
1297.05	273.841
1296.15	279.325
1295.24	306.927
1294.34	315.167
1293.43	306.819
1292.53	350.984
1291.62	339.869
1290.72	334.284
1289.81	348.037
1288.91	347.976
1288	422.468
1287.1	347.854
1286.19	361.594
1285.29	378.089
1284.38	394.579
1283.47	377.957
1282.57	372.374
1281.66	339.214
1280.76	328.125
1279.85	374.934
1278.94	341.792
1278.03	311.417
1277.13	316.873
1276.22	286.513
1275.31	316.762
1274.4	316.706
1273.5	305.637
1272.59	280.806
1271.68	228.459
1270.77	253.187
1269.86	283.41
1268.95	244.845
1268.05	217.296
1267.14	239.259
1266.23	280.461
1265.32	239.175
1264.41	208.897
1263.5	211.609
1262.59	285.759
1261.68	225.271
1260.77	219.737
1259.86	192.236
1258.95	219.66
1258.04	205.895
1257.13	197.625
1256.21	241.499
1255.3	219.506
1254.39	224.954
1253.48	192
1252.57	241.329
1251.66	246.77
1250.75	219.313
1249.83	205.57
1248.92	211.014
1248.01	194.537
1247.1	232.856
1246.18	197.208
1245.27	238.251
1244.36	208.091
1243.44	197.104
1242.53	205.28
1241.62	183.351
1240.7	180.583
1239.79	161.402
1238.88	199.666
1237.96	210.569
1237.05	213.266
1236.13	207.761
1235.22	185.859
1234.3	169.43
1233.39	196.722
1232.47	183.029
1231.56	232.16
1230.64	232.119
1229.73	212.966
1228.81	188.36
1227.89	193.785
1226.98	171.92
1226.06	201.902
1225.15	185.499
1224.23	207.286
1223.31	182.707
1222.4	196.307
1221.48	207.176
1220.56	198.963
1219.64	179.853
1218.73	177.096
1217.81	215.202
1216.89	182.481
1215.97	198.788
1215.05	204.198
1214.14	185.107
1213.22	212.291
1212.3	201.369
1211.38	212.216
1210.46	209.458
1209.54	190.383
1208.62	193.069
1207.7	220.223
1206.78	203.874
1205.86	203.838
1204.94	220.106
1204.02	198.332
1203.1	152.118
1202.18	214.558
1201.26	209.089
1200.34	206.337
1199.42	195.443
1198.5	162.84
1197.58	168.238
1196.66	184.487
1195.73	170.891
1194.81	173.573
1193.89	162.696
1192.97	195.201
1192.05	189.745
1191.12	176.161
1190.2	192.388
1189.28	167.971
1188.36	192.32
1187.43	194.994
1186.51	173.297
1185.59	186.803
1184.66	175.943
1183.74	175.912
1182.81	211.057
1181.89	194.787
1180.97	227.212
1180.04	186.605
1179.12	183.868
1178.19	202.76
1177.27	194.615
1176.34	197.283
1175.42	210.758
1174.49	245.841
1173.57	218.787
1172.64	202.545
1171.71	213.309
1170.79	194.374
1169.86	234.827
1168.94	183.511
1168.01	221.253
1167.08	213.121
1166.16	188.808
1165.23	199.561
1164.3	215.704
1163.37	207.578
1162.45	185.979
1161.52	199.42
1160.59	231.717
1159.66	204.737
1158.73	231.635
1157.81	215.437
1156.88	239.631
1155.95	231.512
1155.02	223.397
1154.09	252.959
1153.16	247.533
1152.23	220.588
1151.3	242.066
1150.37	228.577
1149.44	223.159
1148.51	204.302
1147.58	228.455
1146.65	204.23
1145.72	214.941
1144.79	212.216
1143.86	214.864
1142.93	209.456
1142	206.734
1141.07	246.963
1140.14	230.815
1139.2	201.257
1138.27	252.197
1137.34	222.645
1136.41	262.836
1135.48	214.522
1134.54	241.294
1133.61	233.209
1132.68	238.528
1131.75	241.166
1130.81	254.518
1129.88	238.401
1128.95	257.106
1128.01	283.838
1127.08	275.756
1126.14	230.202
1125.21	240.866
1124.28	254.202
1123.34	262.183
1122.41	254.112
1121.47	229.997
1120.54	240.652
1119.6	229.916
1118.67	221.856
1117.73	213.799
1116.8	243.153
1115.86	211.051
1114.92	192.316
1113.99	245.694
1113.05	237.64
1112.12	224.25
1111.18	200.187
1110.24	229.507
1109.3	208.121
1108.37	221.422
1107.43	234.719
1106.49	221.344
1105.56	221.304
1104.62	218.599
1103.68	191.907
1102.74	229.181
1101.8	186.509
1100.86	210.452
1099.93	239.712
1098.99	197.062
1098.05	234.302
1097.11	207.64
1096.17	212.926
1095.23	215.549
1094.29	234.135
1093.35	231.434
1092.41	178.199
1091.47	202.1
1090.53	196.746
1089.59	223.294
1088.65	220.596
1087.71	223.214
1086.77	217.861
1085.83	199.228
1084.89	204.504
1083.94	220.4
1083	217.706
1082.06	228.285
1081.12	230.898
1080.18	209.629
1079.23	220.204
1078.29	209.554
1077.35	217.473
1076.41	214.783
1075.46	217.396
1074.52	201.453
1073.58	259.722
1072.63	233.178
1071.69	214.591
1070.75	185.416
1069.8	209.218
1068.86	233.012
1067.91	198.554
1066.97	214.4
1066.02	230.24
1065.08	214.324
1064.13	206.349
1063.19	224.827
1062.24	238.01
1061.3	203.594
1060.35	195.627
1059.41	185.02
1058.46	219.341
1057.51	211.376
1056.57	206.054
1055.62	208.659
1054.67	195.418
1053.73	211.225
1052.78	213.827
1051.83	229.625
1050.89	187.361
1049.94	224.266
1048.99	224.226
1048.04	216.273
1047.1	224.146
1046.15	221.469
1045.2	202.977
1044.25	200.305
1043.3	242.431
1042.35	221.311
1041.4	229.174
1040.45	205.43
1039.5	208.026
1038.56	192.192
1037.61	218.481
1036.66	194.755
1035.71	189.458
1034.76	181.531
1033.8	205.173
1032.85	189.356
1031.9	223.506
1030.95	184.03
1030	186.626
1029.05	215.501
1028.1	202.325
1027.15	210.17
1026.2	218.012
1025.24	204.842
1024.29	212.683
1023.34	215.27
1022.39	194.233
1021.43	152.21
1020.48	183.669
1019.53	178.389
1018.57	194.094
1017.62	162.59
1016.67	222.866
1015.71	162.532
1014.76	183.471
1013.81	183.438
1012.85	167.685
1011.9	212.188
1010.94	172.863
1009.99	183.307
1009.03	188.511
1008.08	185.859
1007.12	209.381
1006.17	185.793
1005.21	204.073
1004.26	193.573
1003.3	180.462
1002.35	188.274
1001.39	216.999
1000.43	167.295
999.476	219.535
998.519	188.139
997.562	214.231
996.605	185.46
995.648	203.708
994.691	221.95
993.733	177.528
992.775	200.988
991.817	200.952
990.859	187.87
989.901	200.88
988.943	203.452
987.984	195.592
987.025	232.061
986.066	179.88
985.107	190.274
984.148	174.604
983.188	200.628
982.229	177.146
981.269	161.486
980.309	190.103
979.349	197.88
978.388	164.003
977.428	163.973
976.467	182.16
975.506	176.923
974.545	184.696
973.584	182.062
972.622	200.232
971.661	205.396
970.699	187.162
969.737	189.728
968.775	158.511
967.813	158.483
966.85	163.649
965.888	189.591
964.925	189.557
963.962	210.293
962.999	163.532
962.036	181.669
961.072	168.663
960.109	184.198
959.145	186.759
958.181	194.506
957.217	176.32
956.252	178.881
955.288	212.545
954.323	207.324
953.358	186.558
952.393	186.524
951.428	207.212
950.463	199.405
949.497	178.656
948.532	165.68
947.566	207.063
946.6	201.85
945.633	178.527
944.667	191.429
943.7	191.395
942.734	170.673
941.767	186.155
940.8	180.952
939.832	196.426
938.865	217.064
937.897	206.69
936.929	196.32
935.961	211.781
934.993	216.907
934.025	172.978
933.056	201.341
932.088	211.628
931.119	232.233
930.15	234.771
929.181	229.57
928.211	252.739
927.242	226.909
926.272	221.712
925.302	219.094
924.332	231.94
923.362	234.475
922.391	239.585
921.421	249.845
920.45	257.526
919.479	290.951
918.508	298.622
917.537	301.142
916.565	295.941
915.593	293.315
914.622	277.827
913.65	295.781
912.677	262.297
911.705	259.679
910.733	259.632
909.76	269.866
908.787	246.69
907.814	287.753
906.841	249.17
905.867	233.715
904.894	246.512
903.92	238.765
902.946	261.824
901.972	220.714
900.998	241.202
900.023	230.896
899.048	225.724
898.074	235.942
897.099	233.335
896.123	217.911
895.148	238.377
894.173	222.958
893.197	199.857
892.221	207.506
891.245	230.521
890.269	227.918
889.292	215.075
888.316	207.356
887.339	199.64
886.362	245.667
885.385	222.595
884.408	243.02
883.43	225.072
882.453	245.489
881.475	214.764
880.497	242.844
879.519	242.8
878.54	227.424
877.562	242.712
876.583	217.124
875.604	232.409
874.625	250.241
873.646	268.067
872.666	255.256
871.687	242.449
870.707	252.612
869.727	311.243
868.747	280.578
867.767	298.379
866.786	285.576
865.806	316.116
864.825	293.119
863.844	298.163
862.863	295.561
861.881	318.435
860.9	305.642
859.918	287.761
858.936	302.985
857.954	328.386
856.972	277.423
855.989	292.641
855.007	335.841
854.024	323.061
853.041	320.459
852.058	338.201
851.074	366.106
850.091	315.201
849.107	299.895
848.123	307.463
847.139	345.516
846.155	330.213
845.171	345.391
844.186	289.466
843.201	302.107
842.217	294.438
841.231	309.611
840.246	266.42
839.261	251.151
838.275	273.933
837.289	243.452
836.303	235.801
835.317	243.363
834.331	225.577
833.344	261.014
832.357	260.966
831.371	233.054
830.383	240.61
829.396	220.308
828.409	286.095
827.421	248.073
826.433	245.497
825.445	217.617
824.457	242.878
823.469	202.361
822.48	220.028
821.492	230.102
820.503	217.42
819.514	219.908
818.525	204.705
817.535	209.721
816.546	189.473
815.556	207.119
814.566	196.98
813.576	214.618
812.585	201.957
811.595	191.824
810.604	204.407
809.613	194.278
808.622	206.856
807.631	204.296
806.64	181.563
805.648	194.136
804.656	178.976
803.665	191.545
802.672	161.272
801.68	221.709
800.688	188.922
799.695	158.666
798.702	196.407
797.709	178.748
796.716	186.267
795.723	176.167
794.729	183.683
793.735	188.681
792.741	208.769
791.747	216.276
790.753	183.55
789.758	191.058
788.764	191.023
787.769	165.858
786.774	223.617
785.779	211.015
784.783	188.372
783.788	188.338
782.792	198.347
781.796	185.759
780.8	218.353
779.804	210.785
778.807	195.693
777.811	185.624
776.814	178.066
775.817	185.556
774.82	213.1
773.822	203.035
772.825	185.455
771.827	162.87
770.829	180.376
769.831	212.906
768.833	212.867
767.834	217.836
766.836	202.776
765.837	187.721
764.838	202.702
763.839	200.163
762.839	195.123
761.84	215.096
760.84	222.559
759.84	197.516
758.84	214.978
757.84	189.946
756.839	202.406
755.839	209.864
754.838	222.315
753.837	192.305
752.836	192.27
751.834	182.249
750.833	174.727
749.831	204.643
748.829	179.654
747.827	214.547
746.825	212.014
745.822	197.012
744.819	226.896
743.817	216.883
742.814	201.889
741.81	199.36
740.807	221.747
739.803	211.742
738.8	214.194
737.796	189.253
736.792	219.096
735.787	181.716
734.783	189.15
733.778	204.045
732.773	208.984
731.768	203.971
730.763	211.394
729.758	191.463
728.752	221.261
727.746	188.908
726.74	218.695
725.734	203.747
724.728	211.162
723.721	226.027
722.714	211.085
721.708	218.495
720.701	245.762
719.693	188.631
718.686	238.227
717.678	243.146
716.67	257.985
715.662	225.696
714.654	225.654
713.646	252.885
712.637	218.135
711.629	228.009
710.62	267.613
709.611	210.583
708.601	245.222
707.592	240.224
706.582	217.896
705.572	227.758
704.562	217.816
703.552	309.341
702.542	225.159
701.531	232.539
700.52	230.023
699.509	227.508
698.498	237.356
697.487	247.201
696.475	227.383
695.464	217.457
694.452	237.182
693.44	232.198
692.427	214.867
691.415	229.644
690.402	256.759
689.39	229.559
688.377	261.6
687.363	264.02
686.35	241.768
685.336	266.389
684.323	236.747
683.309	226.841
682.295	229.265
681.28	231.687
680.266	241.502
679.251	214.355
678.236	216.779
677.221	241.369
676.206	258.562
675.191	226.508
674.175	196.927
673.159	221.503
672.143	209.158
671.127	236.183
670.111	231.22
669.094	218.881
668.078	218.84
667.061	243.384
666.044	250.714
665.026	231.007
664.009	213.765
662.991	230.922
661.973	255.442
660.955	238.205
659.937	235.706
658.919	255.301
657.9	235.619
656.881	260.115
655.862	252.706
654.843	252.66
653.824	284.497
652.804	257.471
651.785	242.714
650.765	267.181
649.745	245.075
648.724	269.533
647.704	237.636
646.683	244.94
645.662	239.997
644.641	252.195
643.62	271.733
642.599	249.655
641.577	227.585
640.555	239.776
639.533	276.426
638.511	254.363
637.489	256.761
636.466	239.6
635.443	271.333
634.421	246.843
633.397	268.79
632.374	254.082
631.351	256.478
630.327	280.852
629.303	305.218
628.279	263.66
627.255	263.611
626.23	278.205
625.206	256.194
624.181	287.86
623.156	295.124
622.131	260.93
621.106	265.758
620.08	280.335
619.054	265.66
618.028	263.174
617.002	272.871
615.976	265.513
614.949	263.028
613.923	289.765
612.896	262.931
611.869	282.356
610.841	253.1
609.814	238.454
608.786	243.275
607.758	245.663
606.73	269.936
605.702	269.886
604.674	260.112
603.645	250.342
602.616	252.726
601.587	291.553
600.558	276.924
599.529	259.872
598.499	262.253
597.47	257.349
596.44	276.72
595.41	264.534
594.379	283.897
593.349	259.584
592.318	261.962
591.287	327.392
590.256	344.304
589.225	310.301
588.194	310.244
587.162	344.113
586.13	327.09
585.098	312.494
584.066	312.437
583.033	300.271
582.001	309.9
580.968	292.898
579.935	263.802
578.902	256.494
577.869	256.446
576.835	278.168
575.801	249.096
574.767	290.155
573.733	275.597
572.699	290.048
571.664	241.662
570.63	236.785
569.595	289.887
568.56	231.867
567.525	251.142
566.489	275.24
565.453	294.5
564.418	260.657
563.382	289.565
562.345	275.036
561.309	267.748
560.272	260.464
559.235	279.706
558.198	282.065
557.161	238.626
556.124	286.78
555.086	272.27
554.049	262.583
553.011	291.438
551.972	286.567
550.934	269.66
549.896	300.905
548.857	276.781
547.818	281.542
546.779	259.837
545.739	279.032
544.7	262.146
543.66	295.761
542.62	295.706
541.58	305.266
540.54	329.241
539.5	331.583
538.459	333.924
537.418	338.666
536.377	336.202
535.336	362.55
534.294	381.687
533.253	441.619
532.211	482.331
531.169	513.431
530.127	537.324
529.084	582.792
528.042	604.265
526.999	604.153
525.956	517.749
524.913	500.877
523.869	495.992
522.826	488.713
521.782	445.508
520.738	385.556
519.694	407.034
518.65	347.111
517.605	339.866
516.56	318.267
515.516	299.067
514.47	299.012
513.425	303.739
512.38	291.727
511.334	313.189
510.288	305.96
509.242	298.734
508.196	272.394
507.149	267.566
506.103	265.128
505.056	253.138
504.009	267.417
502.961	267.367
501.914	255.383
500.866	274.426
499.818	279.147
498.77	250.47
497.722	269.503
496.674	264.684
495.625	283.708
494.576	238.365
493.527	259.77
492.478	223.98
491.429	226.321
490.379	281.062
489.329	233.381
488.279	250.004
487.229	247.577
486.179	259.432
485.128	259.383
484.078	242.68
483.027	237.878
481.975	271.13
480.924	244.923
479.873	273.406
478.821	249.585
477.769	244.786
476.717	244.74
475.664	254.197
474.612	230.398
473.559	258.852
472.506	270.676
471.453	232.643
470.4	251.587
469.346	225.437
468.293	263.356
467.239	268.051
466.185	253.771
465.13	256.095
464.076	282.126
463.021	265.481
461.966	220.403
460.911	267.751
459.856	241.642
458.8	305.549
457.745	248.656
456.689	279.39
455.633	279.338
454.576	262.718
453.52	262.669
452.463	279.182
451.406	243.647
450.349	260.157
449.292	267.202
448.235	250.603
447.177	262.375
446.119	257.599
445.061	269.365
444.003	252.778
442.945	295.246
441.886	269.214
440.827	297.497
439.768	292.72
438.709	271.424
437.649	252.495
436.59	259.526
435.53	297.219
434.47	283.013
433.41	278.244
432.349	280.55
431.289	296.997
430.228	249.808
429.167	278.036
428.106	287.407
427.044	282.643
425.983	256.686
424.921	308.436
423.859	268.36
422.797	249.481
421.734	284.732
420.672	268.21
419.609	258.75
418.546	284.572
417.483	246.896
416.419	272.711
415.356	279.711
414.292	298.459
413.228	258.46
412.164	274.856
411.099	281.851
410.035	284.146
408.97	262.962
407.905	279.345
406.84	319.191
405.774	288.626
404.709	281.534
403.643	272.099
402.577	290.809
401.511	243.859
400.444	332.899
399.378	281.27
398.311	295.278
397.244	271.793
396.177	278.77
395.109	297.455
394.042	252.906
392.974	259.883
391.906	273.879
390.838	313.614
389.769	301.856
388.701	269.046
387.632	297.064
386.563	266.606
385.494	294.615
384.424	287.546
383.355	264.119
382.285	287.438
381.215	282.711
380.145	287.33
379.074	280.27
378.004	275.547
376.933	256.817
375.862	308.123
374.791	259.055
373.719	266.006
372.648	254.292
371.576	279.902
370.504	282.181
369.432	293.786
368.359	261.094
367.287	249.391
366.214	249.345
365.141	281.916
364.068	223.627
362.994	272.494
361.921	260.8
360.847	251.439
359.773	235.097
358.699	290.908
357.624	288.526
356.55	258.229
355.475	274.462
354.4	262.783
353.324	265.058
352.249	271.982
351.173	290.525
350.098	260.261
349.022	288.092
347.945	257.841
346.869	239.212
345.792	280.964
344.715	253.052
343.638	262.289
342.561	245.995
341.484	259.87
340.406	255.181
339.328	292.244
338.25	303.783
337.172	278.222
336.093	282.806
335.015	252.624
333.936	298.92
332.857	282.646
331.777	275.644
330.698	287.172
329.618	277.856
328.538	282.434
327.458	287.01
326.378	282.327
325.297	282.274
324.217	296.101
323.136	272.916
322.054	293.677
320.973	284.373
319.892	279.697
318.81	311.999
317.728	330.426
316.646	286.469
315.563	291.035
314.481	272.505
313.398	279.38
312.315	313.955
311.232	300.047
310.149	316.144
309.065	267.634
307.981	242.209
306.897	304.434
305.813	285.929
304.729	265.126
303.644	292.736
302.559	338.773
301.474	301.843
300.389	281.052
299.304	285.606
298.218	292.46
297.132	294.707
296.046	301.558
294.96	292.295
293.874	276.132
292.787	308.289
291.7	289.829
290.613	338.07
289.526	278.223
288.438	296.561
287.351	280.416
286.263	305.642
285.175	287.203
284.086	314.715
282.998	296.281
281.909	314.596
280.82	305.353
279.731	330.545
278.642	348.843
277.552	351.071
276.463	362.476
275.373	341.764
274.283	327.939
273.192	320.999
272.102	357.617
271.011	375.885
269.92	394.146
268.829	373.452
267.737	375.672
266.646	382.471
265.554	398.428
264.462	402.931
263.37	389.121
262.277	400.49
261.185	372.957
260.092	377.462
258.999	377.391
257.906	347.591
256.812	358.957
255.719	368.033
254.625	372.534
253.531	363.323
252.436	379.247
251.342	338.059
250.247	395.089
249.152	381.314
248.057	404.071
246.962	413.124
245.866	417.61
244.771	417.531
243.675	435.701
242.579	444.741
241.482	453.778
240.386	465.092
239.289	474.121
238.192	508.216
237.095	505.841
235.997	498.911
234.9	612.701
233.802	548.822
232.704	594.254
231.606	612.353
230.507	632.72
229.409	664.458
228.31	655.231
227.211	652.832
226.112	727.758
225.012	652.585
223.912	641.094
222.812	695.523
221.712	613.58
220.612	611.192
219.512	583.816
218.411	567.806
217.31	544.991
216.209	565.32
215.107	492.575
214.006	485.673
212.904	485.581
211.802	469.608
210.7	415.082
209.597	489.84
208.495	471.608
207.392	505.522
206.289	441.964
205.186	469.073
204.082	471.249
202.979	443.978
201.875	457.482
200.771	461.923
199.666	448.252
198.562	441.377
197.457	493.343
196.352	461.572
195.247	423.027
194.142	402.591
193.036	400.253
191.93	449.917
190.825	427.227
189.718	411.325
188.612	381.872
187.505	415.687
186.399	435.936
185.292	429.079
184.184	406.418
183.077	433.43
181.969	431.091
180.861	421.982
179.753	392.572
178.645	412.799
177.536	410.465
176.428	414.896
175.319	437.362
174.21	421.5
173.1	394.377
171.991	392.049
170.881	423.512
169.771	403.161
168.661	409.84
167.55	430.024
166.44	414.185
165.329	429.86
164.218	418.528
163.107	434.196
161.995	458.855
160.884	436.279
159.772	440.693
158.66	469.833
157.547	447.268
156.435	465.16
155.322	458.331
154.209	471.721
153.096	491.844
151.983	467.05
150.869	466.961
149.755	514.008
148.641	507.178
147.527	576.636
146.413	578.769
145.298	583.145
144.183	549.397
143.068	553.776
141.953	553.67
140.837	567.011
139.721	582.588
138.606	595.919
137.489	600.285
136.373	611.367
135.256	638.119
134.14	615.611
133.023	617.731
131.905	664.606
130.788	628.682
129.67	657.641
128.553	733.555
127.435	706.582
126.316	668.442
125.198	766.662
124.079	777.689
122.96	777.54
121.841	835.472
120.722	772.776
119.602	803.891
118.482	879.645
117.362	904.031
116.242	879.309
115.122	908.148
114.001	965.977
112.88	961.332
111.759	996.828
110.638	1059.07
109.517	1103.45
108.395	1136.67
107.273	1207.76
106.151	1162.97
105.028	1200.61
103.906	1140.25
102.783	966.357
101.66	979.529
100.537	932.6
