3201.19	75.8017
3200.6	80.0129
3200	101.054
3199.41	71.5689
3198.81	88.3953
3198.22	101.008
3197.63	92.5766
3197.03	63.1109
3196.44	71.5148
3195.84	96.7408
3195.25	88.3152
3194.65	71.4824
3194.06	88.2885
3193.47	75.6644
3192.87	71.45
3192.28	79.8439
3191.68	88.2351
3191.09	67.2166
3190.49	88.2085
3189.9	62.9965
3189.3	92.3809
3188.7	58.779
3188.11	96.5509
3187.51	75.5501
3186.92	67.1455
3186.32	96.5071
3185.73	88.1018
3185.13	71.3098
3184.53	100.657
3183.94	71.2882
3183.34	104.82
3182.74	79.6509
3182.15	54.4898
3181.55	92.1995
3180.96	67.044
3180.36	41.8962
3179.76	75.4017
3179.16	75.3903
3178.57	104.693
3177.97	75.3675
3177.37	108.848
3176.78	58.6014
3176.18	92.074
3175.58	66.9528
3174.98	62.7588
3174.39	92.0322
3173.79	54.3745
3173.19	83.6404
3172.59	66.9022
3172	58.5305
3171.4	87.7825
3170.8	58.5128
3170.2	91.9348
3169.6	54.3169
3169	71.019
3168.41	66.8313
3167.81	58.4685
3167.21	87.6895
3166.61	96.0264
3166.01	66.7908
3165.41	75.1283
3164.81	62.5974
3164.21	87.6231
3163.61	83.438
3163.01	66.7403
3162.42	87.5833
3161.82	87.5701
3161.22	87.5568
3160.62	104.218
3160.02	70.8578
3159.42	70.8471
3158.82	116.672
3158.22	74.9918
3157.62	66.6493
3157.02	91.6289
3156.42	79.1221
3155.82	79.1101
3155.21	70.772
3154.61	83.2485
3154.01	83.2359
3153.41	120.674
3152.81	91.5317
3152.21	99.8377
3151.61	74.8669
3151.01	95.6488
3150.41	66.5282
3149.81	74.8329
3149.2	66.508
3148.6	108.059
3148	87.2653
3147.4	95.5618
3146.8	95.5473
3146.2	95.5328
3145.59	103.824
3144.99	87.1991
3144.39	83.0342
3143.79	99.6259
3143.19	124.514
3142.58	112.045
3141.98	58.0887
3141.38	74.6741
3140.78	99.5504
3140.17	62.2095
3139.57	99.5202
3138.97	70.4827
3138.36	116.072
3137.76	107.764
3137.16	74.5948
3136.55	111.875
3135.95	70.4293
3135.35	82.8454
3134.74	78.6912
3134.14	66.2562
3133.54	128.352
3132.93	70.3758
3132.33	103.478
3131.72	99.3239
3131.12	115.86
3130.52	91.0193
3129.91	115.825
3129.31	86.8557
3128.7	78.5718
3128.1	86.8293
3127.49	103.352
3126.89	124.004
3126.28	111.587
3125.68	90.9088
3125.07	57.8422
3124.47	119.798
3123.86	61.955
3123.26	86.7238
3122.65	144.518
3122.05	119.725
3121.44	99.0678
3120.83	115.561
3120.23	82.5314
3119.62	86.6448
3119.02	99.0075
3118.41	103.117
3117.8	94.8534
3117.2	90.7155
3116.59	98.9474
3115.99	90.6879
3115.38	111.282
3114.77	98.9022
3114.17	111.248
3113.56	102.992
3112.95	98.8571
3112.34	102.961
3111.74	127.652
3111.13	111.164
3110.52	98.797
3109.92	98.782
3109.31	86.4211
3108.7	82.2933
3108.09	102.851
3107.48	115.176
3106.88	86.3685
3106.27	86.3554
3105.66	127.458
3105.05	102.773
3104.44	98.6468
3103.84	143.838
3103.23	69.8535
3102.62	123.252
3102.01	123.233
3101.4	73.9288
3100.79	127.302
3100.18	102.648
3099.58	98.5267
3098.97	94.4071
3098.36	114.913
3097.75	123.102
3097.14	143.597
3096.53	114.86
3095.92	102.538
3095.31	94.3209
3094.7	147.61
3094.09	81.9932
3093.48	122.971
3092.87	118.854
3092.26	94.2491
3091.65	102.429
3091.04	73.7377
3090.43	110.59
3089.82	90.0964
3089.21	118.745
3088.6	110.539
3087.99	98.242
3087.38	102.32
3086.77	139.134
3086.15	110.472
3085.54	143.182
3084.93	139.07
3084.32	110.421
3083.71	102.226
3083.1	130.83
3082.49	81.7561
3081.87	118.528
3081.26	118.51
3080.65	155.266
3080.04	138.901
3079.43	159.303
3078.81	122.522
3078.2	93.9193
3077.59	114.319
3076.98	142.877
3076.37	151.018
3075.75	97.9429
3075.14	122.41
3074.53	85.6739
3073.91	122.373
3073.3	130.511
3072.69	126.413
3072.08	159.012
3071.46	158.987
3070.85	138.583
3070.24	146.713
3069.62	146.69
3069.01	110.001
3068.39	154.793
3067.78	138.478
3067.17	118.095
3066.55	150.65
3065.94	146.556
3065.32	118.041
3064.71	142.442
3064.1	134.282
3063.48	158.672
3062.87	170.852
3062.25	126.086
3061.64	113.866
3061.02	117.915
3060.41	170.747
3059.79	150.397
3059.18	117.861
3058.56	138.161
3057.95	134.077
3057.33	150.306
3056.72	142.159
3056.1	113.71
3055.48	142.116
3054.87	166.453
3054.25	121.776
3053.64	117.699
3053.02	146.087
3052.4	117.663
3051.79	158.212
3051.17	166.3
3050.56	141.942
3049.94	186.524
3049.32	150.007
3048.71	141.877
3048.09	154.014
3047.47	166.148
3046.85	153.967
3046.24	162.046
3045.62	129.617
3045	157.947
3044.39	157.922
3043.77	174.093
3043.15	145.73
3042.53	137.613
3041.92	149.732
3041.3	157.802
3040.68	97.0939
3040.06	210.338
3039.44	141.552
3038.83	141.53
3038.21	185.983
3037.59	145.53
3036.97	173.8
3036.35	157.609
3035.73	153.544
3035.11	125.24
3034.49	157.536
3033.88	141.357
3033.26	169.603
3032.64	181.689
3032.02	165.514
3031.4	165.489
3030.78	157.392
3030.16	181.578
3029.54	141.206
3028.92	145.218
3028.3	149.229
3027.68	145.174
3027.06	137.087
3026.44	153.192
3025.82	153.168
3025.2	161.205
3024.58	145.063
3023.96	161.156
3023.34	169.188
3022.72	149.024
3022.1	149.001
3021.48	148.978
3020.85	173.11
3020.23	169.058
3019.61	144.885
3018.99	148.887
3018.37	148.864
3017.75	156.886
3017.13	168.929
3016.51	148.795
3015.88	136.71
3015.26	156.79
3014.64	156.766
3014.02	176.837
3013.4	148.681
3012.77	200.89
3012.15	172.739
3011.53	172.713
3010.91	180.718
3010.28	164.629
3009.66	172.633
3009.04	152.536
3008.42	168.567
3007.79	184.592
3007.17	180.552
3006.55	204.594
3005.92	120.331
3005.3	188.49
3004.68	180.441
3004.05	180.413
3003.43	184.394
3002.8	184.366
3002.18	168.308
3001.56	184.309
3000.93	168.257
3000.31	192.264
2999.68	176.215
2999.06	164.175
2998.44	176.161
2997.81	192.146
2997.19	184.112
2996.56	192.087
2995.94	160.048
2995.31	176.026
2994.69	171.999
2994.06	155.975
2993.44	179.943
2992.81	163.923
2992.19	171.893
2991.56	191.851
2990.93	211.803
2990.31	187.797
2989.68	163.797
2989.06	215.7
2988.43	215.667
2987.81	207.647
2987.18	223.586
2986.55	243.511
2985.93	211.543
2985.3	183.575
2984.67	223.449
2984.05	227.404
2983.42	191.468
2982.79	179.474
2982.17	167.483
2981.54	195.367
2980.91	207.297
2980.29	175.378
2979.66	187.307
2979.03	235.094
2978.4	227.089
2977.78	167.303
2977.15	191.174
2976.52	199.109
2975.89	226.95
2975.26	210.991
2974.64	270.664
2974.01	179.088
2973.38	226.81
2972.75	222.797
2972.12	266.52
2971.49	198.865
2970.87	234.624
2970.24	246.516
2969.61	246.478
2968.98	210.667
2968.35	210.635
2967.72	238.417
2967.09	214.543
2966.46	242.317
2965.83	198.59
2965.2	190.617
2964.57	269.999
2963.94	210.408
2963.31	250.069
2962.68	190.499
2962.05	222.215
2961.42	253.921
2960.79	241.981
2960.16	234.011
2959.53	218.113
2958.9	265.66
2958.27	241.832
2957.64	265.578
2957.01	241.758
2956.38	221.907
2955.75	217.911
2955.12	229.762
2954.49	194.079
2953.85	213.85
2953.22	257.373
2952.59	233.579
2951.96	241.46
2951.33	284.958
2950.7	273.043
2950.07	245.305
2949.43	241.311
2948.8	272.917
2948.17	245.192
2947.54	249.108
2946.9	241.163
2946.27	229.267
2945.64	248.993
2945.01	276.616
2944.37	241.014
2943.74	268.63
2943.11	256.739
2942.48	236.953
2941.84	260.609
2941.21	315.841
2940.58	272.371
2939.94	276.275
2939.31	303.856
2938.68	284.081
2938.04	248.533
2937.41	252.439
2936.77	276.062
2936.14	244.475
2935.51	272.035
2934.87	264.109
2934.24	291.657
2933.6	275.85
2932.97	283.687
2932.33	228.491
2931.7	256.028
2931.06	283.556
2930.43	232.323
2929.79	271.657
2929.16	310.98
2928.52	295.189
2927.89	275.467
2927.25	299.032
2926.62	259.646
2925.98	302.873
2925.35	294.961
2924.71	306.712
2924.07	271.28
2923.44	259.445
2922.8	267.266
2922.17	247.576
2921.53	278.971
2920.89	278.928
2920.26	306.381
2919.62	306.333
2918.98	302.359
2918.35	321.943
2917.71	270.862
2917.07	286.52
2916.44	298.248
2915.8	317.821
2915.16	278.541
2914.52	325.568
2913.89	266.689
2913.25	290.175
2912.61	266.607
2911.97	282.246
2911.34	305.719
2910.7	344.86
2910.06	293.87
2909.42	329.083
2908.78	262.442
2908.15	348.564
2907.51	246.698
2906.87	274.066
2906.23	305.341
2905.59	293.552
2904.95	297.42
2904.31	324.764
2903.67	348.187
2903.04	285.547
2902.4	336.346
2901.76	328.473
2901.12	273.685
2900.48	336.19
2899.84	375.224
2899.2	343.902
2898.56	328.219
2897.92	332.075
2897.28	335.93
2896.64	359.312
2896	285.062
2895.36	324.061
2894.72	281.07
2894.08	327.864
2893.44	316.106
2892.8	300.449
2892.16	319.909
2891.51	319.86
2890.87	315.91
2890.23	347.057
2889.59	288.52
2888.95	374.238
2888.31	292.328
2887.67	300.077
2887.03	370.168
2886.38	335.048
2885.74	303.833
2885.1	334.944
2884.46	311.527
2883.82	346.521
2883.17	362.038
2882.53	350.306
2881.89	326.901
2881.25	326.851
2880.6	322.909
2879.96	385.097
2879.32	307.252
2878.68	365.535
2878.03	326.598
2877.39	392.634
2876.75	314.836
2876.1	334.218
2875.46	365.252
2874.82	341.885
2874.17	365.139
2873.53	310.708
2872.89	333.959
2872.24	353.321
2871.6	322.21
2870.95	318.278
2870.31	337.633
2869.66	364.743
2869.02	341.408
2868.38	356.871
2867.73	364.573
2867.09	337.372
2866.44	337.319
2865.8	329.514
2865.15	344.967
2864.51	352.664
2863.86	364.234
2863.22	360.303
2862.57	364.121
2861.93	367.937
2861.28	360.136
2860.63	340.721
2859.99	309.698
2859.34	336.744
2858.7	313.472
2858.05	363.726
2857.4	332.719
2856.76	359.745
2856.11	390.63
2855.46	406.037
2854.82	363.444
2854.17	367.253
2853.52	309.218
2852.88	351.681
2852.23	347.762
2851.58	343.845
2850.94	382.419
2850.29	339.876
2849.64	382.301
2848.99	355.214
2848.35	320.415
2847.7	312.646
2847.05	389.782
2846.4	312.549
2845.76	366.512
2845.11	366.456
2844.46	362.542
2843.81	343.204
2843.16	424.119
2842.51	370.083
2841.87	385.443
2841.22	327.576
2840.57	404.59
2839.92	362.148
2839.27	419.872
2838.62	342.778
2837.97	388.935
2837.32	365.773
2836.67	415.761
2836.02	304.074
2835.37	357.905
2834.72	361.698
2834.07	369.336
2833.42	373.125
2832.77	365.375
2832.12	361.473
2831.47	396.02
2830.82	372.893
2830.17	407.428
2829.52	384.306
2828.87	322.767
2828.22	353.452
2827.57	372.603
2826.92	326.457
2826.27	322.566
2825.62	360.911
2824.97	368.533
2824.31	406.858
2823.66	387.606
2823.01	337.664
2822.36	372.14
2821.71	379.754
2821.06	391.201
2820.4	440.991
2819.75	394.913
2819.1	341.182
2818.45	375.625
2817.8	410.058
2817.14	341.023
2816.49	337.139
2815.84	379.222
2815.19	382.993
2814.53	413.568
2813.88	352.244
2813.23	378.986
2812.57	440.168
2811.92	398.003
2811.27	352.025
2810.61	386.402
2809.96	443.719
2809.31	413.053
2808.65	439.757
2808	428.218
2807.34	363.164
2806.69	363.107
2806.04	431.839
2805.38	397.383
2804.73	389.681
2804.07	393.44
2803.42	401.017
2802.76	381.861
2802.11	408.528
2801.45	370.29
2800.8	435.118
2800.14	435.05
2799.49	389.195
2798.83	434.915
2798.18	381.445
2797.52	381.385
2796.87	419.458
2796.21	396.517
2795.56	377.395
2794.9	381.147
2794.24	384.899
2793.59	392.459
2792.93	400.018
2792.28	419.001
2791.62	411.318
2790.96	460.757
2790.31	399.768
2789.65	380.672
2788.99	411.062
2788.33	452.858
2787.68	399.519
2787.02	410.869
2786.36	357.553
2785.71	368.906
2785.05	418.282
2784.39	437.227
2783.73	421.953
2783.08	391.481
2782.42	410.421
2781.76	436.954
2781.1	459.68
2780.44	444.414
2779.79	421.558
2779.13	444.276
2778.47	402.443
2777.81	425.157
2777.15	368.158
2776.49	406.05
2775.83	390.809
2775.17	443.859
2774.52	421.032
2773.86	428.551
2773.2	417.108
2772.54	481.495
2771.88	447.304
2771.22	424.493
2770.56	397.9
2769.9	431.938
2769.24	462.177
2768.58	435.591
2767.92	458.246
2767.26	461.961
2766.6	458.103
2765.94	461.816
2765.28	412.542
2764.62	442.751
2763.96	423.764
2763.3	495.575
2762.63	416.067
2761.97	457.602
2761.31	465.093
2760.65	449.897
2759.99	480.067
2759.33	491.331
2758.67	430.792
2758	445.838
2757.34	464.656
2756.68	460.807
2756.02	475.841
2755.36	479.542
2754.69	403.96
2754.03	441.645
2753.37	464.22
2752.71	460.374
2752.04	464.075
2751.38	494.182
2750.72	479.017
2750.06	494.027
2749.39	505.261
2748.73	478.792
2748.07	425.945
2747.4	463.567
2746.74	471.031
2746.08	470.957
2745.41	527.39
2744.75	470.81
2744.09	455.673
2743.42	440.54
2742.76	470.589
2742.09	462.987
2741.43	413.988
2740.76	477.894
2740.1	522.967
2739.44	443.888
2738.77	507.758
2738.11	458.791
2737.44	469.999
2736.78	496.242
2736.11	488.646
2735.45	466.02
2734.78	477.22
2734.12	533.501
2733.45	447.019
2732.78	435.681
2732.12	458.145
2731.45	514.393
2730.79	510.559
2730.12	469.19
2729.45	547.928
2728.79	472.795
2728.12	521.494
2727.46	525.163
2726.79	566.337
2726.12	558.749
2725.46	521.167
2724.79	468.602
2724.12	453.535
2723.45	565.893
2722.79	460.887
2722.12	535.744
2721.45	513.185
2720.78	516.85
2720.12	490.556
2719.45	505.455
2718.78	501.633
2718.11	501.554
2717.45	512.702
2716.78	508.88
2716.11	609.812
2715.44	531.164
2714.77	467.5
2714.1	489.864
2713.44	515.958
2712.77	508.401
2712.1	530.747
2711.43	515.716
2710.76	515.635
2710.09	545.441
2709.42	545.355
2708.75	545.27
2708.08	560.121
2707.41	530.164
2706.74	556.212
2706.07	604.645
2705.4	541.11
2704.73	567.143
2704.06	552.132
2703.39	488.634
2702.72	559.417
2702.05	559.329
2701.38	499.589
2700.71	518.149
2700.04	536.703
2699.37	521.713
2698.7	573.794
2698.03	499.197
2697.36	592.237
2696.68	577.248
2696.01	569.71
2695.34	573.343
2694.67	595.588
2694	569.441
2693.33	576.794
2692.65	610.189
2691.98	535.692
2691.31	546.766
2690.64	554.118
2689.97	539.157
2689.29	568.815
2688.62	538.988
2687.95	635.534
2687.28	531.386
2686.6	538.734
2685.93	594.371
2685.26	553.421
2684.58	612.753
2683.91	575.525
2683.24	619.985
2682.56	645.87
2681.89	601.233
2681.22	538.056
2680.54	589.913
2679.87	615.788
2679.19	578.601
2678.52	608.177
2677.85	582.127
2677.17	593.157
2676.5	648.663
2675.82	589.264
2675.15	644.753
2674.47	596.488
2673.8	607.507
2673.12	596.3
2672.45	625.832
2671.77	633.138
2671.1	566.403
2670.42	599.626
2669.75	581.028
2669.07	643.84
2668.4	595.643
2667.72	588.151
2667.04	621.345
2666.37	584.268
2665.69	632.241
2665.01	613.658
2664.34	617.257
2663.66	609.769
2662.99	639.233
2662.31	594.799
2661.63	631.644
2660.95	609.385
2660.28	660.986
2659.6	646.113
2658.92	653.395
2658.25	586.855
2657.57	583.072
2656.89	630.947
2656.21	664.05
2655.54	630.748
2654.86	582.705
2654.18	645.299
2653.5	696.813
2652.82	615.605
2652.15	633.937
2651.47	692.798
2650.79	663.213
2650.11	677.844
2649.43	655.637
2648.75	699.727
2648.07	644.384
2647.39	647.964
2646.72	703.077
2646.04	706.646
2645.36	743.333
2644.68	647.555
2644	614.344
2643.32	636.316
2642.64	658.281
2641.96	680.239
2641.28	694.837
2640.6	650.618
2639.92	679.917
2639.24	709.206
2638.56	642.961
2637.88	727.35
2637.2	664.796
2636.51	668.363
2635.83	693.96
2635.15	712.206
2634.47	701.082
2633.79	649.591
2633.11	649.488
2632.43	704.418
2631.75	638.278
2631.06	660.184
2630.38	744.423
2629.7	736.972
2629.02	678.201
2628.34	637.774
2627.66	696.31
2626.97	674.215
2626.29	692.427
2625.61	732.611
2624.93	736.157
2624.24	670.127
2623.56	739.586
2622.88	746.791
2622.19	717.391
2621.51	746.554
2620.83	662.279
2620.14	709.734
2619.46	716.938
2618.78	738.768
2618.09	738.651
2617.41	786.064
2616.73	716.484
2616.04	756.575
2615.36	763.765
2614.67	716.144
2613.99	734.297
2613.3	664.781
2612.62	792.498
2611.94	715.691
2611.25	741.134
2610.57	766.569
2609.88	715.352
2609.2	773.625
2608.51	718.774
2607.83	733.252
2607.14	718.546
2606.45	725.726
2605.77	798.537
2605.08	805.702
2604.4	780.059
2603.71	696.11
2603.03	768.88
2602.34	717.751
2601.65	772.279
2600.97	775.799
2600.28	728.335
2599.59	782.836
2598.91	746.307
2598.22	764.388
2597.53	782.464
2596.85	800.534
2596.16	814.96
2595.47	716.615
2594.78	785.605
2594.1	752.752
2593.41	752.633
2592.72	788.867
2592.03	803.281
2591.35	835.862
2590.66	795.759
2589.97	817.431
2589.28	730.123
2588.59	751.799
2587.9	802.518
2587.22	784.237
2586.53	755.071
2585.84	744.063
2585.15	802.009
2584.46	729.313
2583.77	743.709
2583.08	758.1
2582.39	786.993
2581.7	834.008
2581.01	728.735
2580.32	782.994
2579.63	793.743
2578.94	764.627
2578.25	804.361
2577.56	720.912
2576.87	778.751
2576.18	778.628
2575.49	760.399
2574.8	803.723
2574.11	778.257
2573.42	803.468
2572.73	716.493
2572.04	814.067
2571.35	784.998
2570.66	781.257
2569.97	777.516
2569.27	784.624
2568.58	795.345
2567.89	798.834
2567.2	802.321
2566.51	856.396
2565.82	784.002
2565.12	733.304
2564.43	736.8
2563.74	798.073
2563.05	794.336
2562.35	783.379
2561.66	761.598
2560.97	801.175
2560.28	764.964
2559.58	829.782
2558.89	840.472
2558.2	822.306
2557.5	832.993
2556.81	811.228
2556.12	720.977
2555.42	774.927
2554.73	778.408
2554.04	767.474
2553.34	806.981
2552.65	774.434
2551.95	842.739
2551.26	770.587
2550.56	817.269
2549.87	795.54
2549.18	809.811
2548.48	881.654
2547.79	784.367
2547.09	816.619
2546.4	866.846
2545.7	823.552
2545.01	787.464
2544.31	686.674
2543.61	797.997
2542.92	819.434
2542.22	797.743
2541.53	815.581
2540.83	797.489
2540.14	836.871
2539.44	829.556
2538.74	793.518
2538.05	858.012
2537.35	793.266
2536.65	825.439
2535.96	871.956
2535.26	893.343
2534.56	821.458
2533.87	789.048
2533.17	763.82
2532.47	806.724
2531.77	842.444
2531.08	860.232
2530.38	824.257
2529.68	906.539
2528.98	906.394
2528.29	813.117
2527.59	780.755
2526.89	888.057
2526.19	827.05
2525.49	823.339
2524.79	866.158
2524.1	805.183
2523.4	905.24
2522.7	797.772
2522	869.183
2521.3	865.468
2520.6	861.754
2519.9	883.068
2519.2	872.203
2518.5	793.435
2517.8	804.029
2517.1	850.349
2516.4	921.66
2515.7	907.226
2515	771.376
2514.3	856.948
2513.6	856.811
2512.9	860.244
2512.2	849.4
2511.5	927.768
2510.8	859.833
2510.1	841.86
2509.4	852.425
2508.7	838.025
2508	891.374
2507.3	869.842
2506.59	862.574
2505.89	873.128
2505.19	851.61
2504.49	869.287
2503.79	886.959
2503.09	861.886
2502.38	843.944
2501.68	829.568
2500.98	808.077
2500.28	857.777
2499.57	893.227
2498.87	829.038
2498.17	825.349
2497.47	857.23
2496.76	874.875
2496.06	924.517
2495.36	878.151
2494.65	792.698
2493.95	874.316
2493.25	888.391
2492.54	884.696
2491.84	852.583
2491.14	834.687
2490.43	973.054
2489.73	905.435
2489.02	951.442
2488.32	894.497
2487.61	823.374
2486.91	869.372
2486.21	862.137
2485.5	876.189
2484.8	932.797
2484.09	968.11
2483.39	921.862
2482.68	939.44
2481.98	953.468
2481.27	864.717
2480.56	892.926
2479.86	882.155
2479.15	874.929
2478.45	888.956
2477.74	941.93
2477.04	853.266
2476.33	913.309
2475.62	937.939
2474.92	909.478
2474.21	870.412
2473.5	834.896
2472.8	955.024
2472.09	923.043
2471.38	933.503
2470.68	922.747
2469.97	908.46
2469.26	862.369
2468.55	851.63
2467.85	844.427
2467.14	897.281
2466.43	935.99
2465.72	896.994
2465.01	981.592
2464.31	917.889
2463.6	910.682
2462.89	861.128
2462.18	924.505
2461.47	963.166
2460.76	959.484
2460.05	924.061
2459.35	976.809
2458.64	948.446
2457.93	902.466
2457.22	934.044
2456.51	955.039
2455.8	958.409
2455.09	947.687
2454.38	912.311
2453.67	968.514
2452.96	964.838
2452.25	887.227
2451.54	922.287
2450.83	939.737
2450.12	1009.97
2449.41	971.102
2448.7	960.393
2447.99	1013
2447.28	949.535
2446.57	903.671
2445.85	889.464
2445.14	924.472
2444.43	962.984
2443.72	969.858
2443.01	938.081
2442.3	955.495
2441.59	962.366
2440.87	1011.38
2440.16	1035.79
2439.45	940.84
2438.74	940.689
2438.02	958.085
2437.31	982.494
2436.6	919.186
2435.89	961.132
2435.17	992.543
2434.46	1030.96
2433.75	943.139
2433.03	897.416
2432.32	960.361
2431.61	991.747
2430.89	991.588
2430.18	938.879
2429.47	998.275
2428.75	970.097
2428.04	938.427
2427.33	1018.8
2426.61	920.624
2425.9	944.975
2425.18	986.816
2424.47	909.684
2423.75	1017.98
2423.04	965.354
2422.32	933.725
2421.61	996.513
2420.89	929.93
2420.18	978.716
2419.46	971.569
2418.75	978.402
2418.03	967.763
2417.32	967.608
2416.6	988.408
2415.88	1019.68
2415.17	991.582
2414.45	994.913
2413.74	931.927
2413.02	928.287
2412.3	966.52
2411.59	1008.23
2410.87	997.602
2410.15	938.153
2409.44	938.002
2408.72	979.689
2408	1017.88
2407.28	979.374
2406.57	1007.09
2405.85	944.217
2405.13	930.131
2404.41	982.227
2403.7	940.279
2402.98	936.646
2402.26	967.828
2401.54	974.634
2400.82	1023.2
2400.11	1019.56
2399.39	1022.87
2398.67	1012.27
2397.95	1039.93
2397.23	1004.99
2396.51	994.398
2395.79	980.332
2395.07	959.32
2394.35	955.69
2393.63	1045.88
2392.91	927.59
2392.19	1014.28
2391.47	1041.9
2390.75	1052.15
2390.03	951.296
2389.31	978.913
2388.59	1013.46
2387.87	1027.18
2387.15	1006.2
2386.43	999.097
2385.71	1016.28
2384.99	1064.67
2384.27	1057.56
2383.55	1015.79
2382.83	1036.42
2382.11	1060.51
2381.38	991.041
2380.66	945.841
2379.94	1084.25
2379.22	980.171
2378.5	1128.92
2377.78	1073.34
2377.05	1076.63
2376.33	1041.84
2375.61	1024.37
2374.89	1058.81
2374.16	1113.99
2373.44	1016.96
2372.72	978.75
2372	999.34
2371.27	1109.81
2370.55	1054.33
2369.83	1026.51
2369.1	1130.01
2368.38	1102.19
2367.66	1053.65
2366.93	1119.1
2366.21	1063.67
2365.48	1018.61
2364.76	1097.85
2364.03	1011.38
2363.31	1094.04
2362.59	1124.92
2361.86	1062.64
2361.14	1100.41
2360.41	1096.78
2359.69	1106.95
2358.96	1089.53
2358.24	1099.7
2357.51	1085.74
2356.79	1013.19
2356.06	1037.15
2355.33	1005.97
2354.61	978.254
2353.88	1064.2
2353.16	1057.14
2352.43	1122.38
2351.7	1087.78
2350.98	1063.51
2350.25	1059.9
2349.53	1118.22
2348.8	1121.48
2348.07	1159.13
2347.34	1097.04
2346.62	1127.81
2345.89	1127.63
2345.16	1031.2
2344.44	1075.71
2343.71	1116.77
2342.98	1051.31
2342.25	1054.58
2341.52	1068.15
2340.8	1061.11
2340.07	1084.97
2339.34	1095.09
2338.61	1136.1
2337.88	1053.56
2337.15	1152.89
2336.43	1163
2335.7	1077.06
2334.97	1121.47
2334.24	1073.28
2333.51	1049.11
2332.78	1165.48
2332.05	1117.31
2331.32	1130.84
2330.59	1127.23
2329.86	1178.43
2329.13	1126.87
2328.4	1140.38
2327.67	1047.75
2326.94	1074.97
2326.21	1180.9
2325.48	1187.56
2324.75	1159.99
2324.02	1108.48
2323.29	1121.99
2322.56	1214.15
2321.83	1104.53
2321.1	1176.15
2320.36	1100.75
2319.63	1162.09
2318.9	1155.07
2318.17	1021.63
2317.44	1038.54
2316.71	1123.77
2315.97	1154.32
2315.24	1092.67
2314.51	1119.81
2313.78	1129.87
2313.04	1143.34
2312.31	1061.25
2311.58	1122.5
2310.85	1197.36
2310.11	1128.95
2309.38	1190.15
2308.65	1200.19
2307.91	1165.9
2307.18	1155.49
2306.45	1165.53
2305.71	1230.08
2304.98	1192.4
2304.25	1243.3
2303.51	1079.63
2302.78	1164.58
2302.04	1215.46
2301.31	1215.27
2300.57	1174.23
2299.84	1214.87
2299.1	1116
2298.37	1139.64
2297.63	1193.87
2296.9	1186.88
2296.16	1159.48
2295.43	1176.29
2294.69	1220.29
2293.96	1145.32
2293.22	1189.31
2292.49	1161.94
2291.75	1199.12
2291.01	1202.32
2290.28	1236.08
2289.54	1198.53
2288.81	1106.68
2288.07	1191.36
2287.33	1208.13
2286.6	1163.83
2285.86	1136.5
2285.12	1183.8
2284.38	1139.52
2283.65	1169.85
2282.91	1254.42
2282.17	1183.03
2281.43	1186.23
2280.7	1145.37
2279.96	1270.55
2279.22	1250.01
2278.48	1209.17
2277.74	1131.08
2277.01	1215.55
2276.27	1222.12
2275.53	1188.07
2274.79	1269.1
2274.05	1258.74
2273.31	1190.88
2272.57	1123.03
2271.83	1288.57
2271.09	1312.03
2270.36	1213.77
2269.62	1142.58
2268.88	1193.09
2268.14	1240.21
2267.4	1263.66
2266.66	1236.43
2265.92	1310.54
2265.18	1188.75
2264.44	1222.32
2263.7	1245.75
2262.95	1164.54
2262.21	1198.1
2261.47	1197.9
2260.73	1187.59
2259.99	1224.5
2259.25	1197.32
2258.51	1284.8
2257.77	1291.34
2257.03	1179.88
2256.28	1243.73
2255.54	1230.05
2254.8	1263.54
2254.06	1290.29
2253.32	1226.08
2252.57	1283.13
2251.83	1229.05
2251.09	1269.25
2250.35	1211.81
2249.6	1211.62
2248.86	1231.61
2248.12	1241.5
2247.37	1224.48
2246.63	1214.19
2245.89	1230.81
2245.14	1240.7
2244.4	1173.26
2243.66	1210.04
2242.91	1310.66
2242.17	1249.97
2241.42	1222.89
2240.68	1229.41
2239.93	1279.58
2239.19	1202.14
2238.45	1306.03
2237.7	1235.32
2236.96	1265.32
2236.21	1295.32
2235.47	1295.11
2234.72	1271.41
2233.98	1324.87
2233.23	1291.12
2232.48	1300.97
2231.74	1247.12
2230.99	1240.21
2230.25	1229.95
2229.5	1293.42
2228.75	1330.06
2228.01	1293
2227.26	1262.64
2226.52	1302.62
2225.77	1302.41
2225.02	1258.68
2224.27	1301.99
2223.53	1285.04
2222.78	1217.91
2222.03	1274.58
2221.29	1234.24
2220.54	1401.25
2219.79	1213.77
2219.04	1280.44
2218.29	1340.4
2217.55	1330.15
2216.8	1353.33
2216.05	1326.38
2215.3	1299.44
2214.55	1295.89
2213.8	1292.33
2213.06	1308.82
2212.31	1338.65
2211.56	1308.39
2210.81	1311.51
2210.06	1271.26
2209.31	1344.45
2208.56	1334.22
2207.81	1334
2207.06	1263.76
2206.31	1313.56
2205.56	1280.01
2204.81	1379.79
2204.06	1422.88
2203.31	1392.67
2202.56	1315.82
2201.81	1268.98
2201.06	1335.37
2200.31	1325.16
2199.56	1241.72
2198.81	1361.34
2198.06	1347.81
2197.3	1354.25
2196.55	1307.45
2195.8	1420.33
2195.05	1317
2194.3	1290.18
2193.55	1356.46
2192.79	1392.81
2192.04	1259.64
2191.29	1375.74
2190.54	1329
2189.78	1398.54
2189.03	1411.6
2188.28	1325.02
2187.53	1314.85
2186.77	1430.82
2186.02	1397.4
2185.27	1427.04
2184.51	1386.98
2183.76	1346.95
2183	1323.51
2182.25	1346.5
2181.5	1396.02
2180.74	1442.21
2179.99	1395.57
2179.23	1309.17
2178.48	1368.6
2177.73	1431.33
2176.97	1414.53
2176.22	1331.49
2175.46	1433.94
2174.71	1354.24
2173.95	1516.23
2173.2	1396.82
2172.44	1469.4
2171.68	1359.97
2170.93	1415.99
2170.17	1422.37
2169.42	1468.44
2168.66	1375.61
2167.91	1405.14
2167.15	1404.91
2166.39	1434.42
2165.64	1417.67
2164.88	1447.17
2164.12	1430.42
2163.37	1426.88
2162.61	1410.13
2161.85	1469.34
2161.09	1416.27
2160.34	1429.24
2159.58	1518.12
2158.82	1415.58
2158.06	1402.15
2157.31	1411.81
2156.55	1431.37
2155.79	1467.41
2155.03	1411.12
2154.27	1401
2153.51	1437.02
2152.76	1387.36
2152	1433.26
2151.24	1449.49
2150.48	1419.61
2149.72	1412.79
2148.96	1452.07
2148.2	1399.16
2147.44	1435.14
2146.68	1464.52
2145.92	1398.47
2145.16	1450.88
2144.4	1473.67
2143.64	1512.89
2142.88	1325.21
2142.12	1512.4
2141.36	1531.87
2140.6	1482.32
2139.84	1422.93
2139.08	1419.41
2138.32	1491.45
2137.56	1501.05
2136.8	1576.34
2136.03	1477.58
2135.27	1454.35
2134.51	1427.85
2133.75	1476.85
2132.99	1519.26
2132.23	1482.92
2131.46	1361.31
2130.7	1492.28
2129.94	1531.38
2129.18	1475.39
2128.41	1475.15
2127.65	1458.52
2126.89	1474.67
2126.13	1366.3
2125.36	1556.08
2124.6	1418.26
2123.84	1486.8
2123.07	1483.28
2122.31	1466.66
2121.54	1522.07
2120.78	1577.45
2120.02	1374.32
2119.25	1524.59
2118.49	1413.12
2117.72	1494.65
2116.96	1494.41
2116.19	1487.62
2115.43	1562.56
2114.67	1490.4
2113.9	1555.51
2113.13	1509.51
2112.37	1512.53
2111.6	1466.56
2110.84	1469.58
2110.07	1449.75
2109.31	1491.95
2108.54	1511.29
2107.78	1403.34
2107.01	1553.21
2106.24	1526.85
2105.48	1516.82
2104.71	1523.09
2103.94	1604.36
2103.18	1581.27
2102.41	1515.82
2101.64	1580.75
2100.88	1515.32
2100.11	1590.01
2099.34	1547.4
2098.57	1537.37
2097.81	1511.06
2097.04	1481.51
2096.27	1474.75
2095.5	1581.93
2094.73	1627.23
2093.97	1535.85
2093.2	1519.33
2092.43	1558.11
2091.66	1535.09
2090.89	1557.6
2090.12	1482.56
2089.35	1592.84
2088.58	1504.83
2087.81	1566.32
2087.04	1468.59
2086.28	1565.81
2085.51	1611.02
2084.74	1610.75
2083.97	1480.61
2083.2	1610.22
2082.43	1681.37
2081.66	1619.43
2080.88	1596.45
2080.11	1628.63
2079.34	1550.51
2078.57	1608.63
2077.8	1520.81
2077.03	1530.29
2076.26	1575.42
2075.49	1581.64
2074.72	1617.02
2073.94	1581.12
2073.17	1571.14
2072.4	1557.92
2071.63	1476.71
2070.86	1605.98
2070.08	1628.37
2069.31	1531
2068.54	1601.94
2067.77	1646.98
2066.99	1620.83
2066.22	1578.51
2065.45	1600.89
2064.68	1558.58
2063.9	1616.52
2063.13	1603.32
2062.36	1658
2061.58	1589.87
2060.81	1544.37
2060.03	1566.73
2059.26	1582.62
2058.49	1630.8
2057.71	1672.5
2056.94	1562.47
2056.16	1575.12
2055.39	1587.77
2054.61	1600.41
2053.84	1596.92
2053.06	1635.36
2052.29	1606.07
2051.51	1696.09
2050.74	1605.54
2049.96	1608.5
2049.19	1688.8
2048.41	1624.08
2047.63	1672.13
2046.86	1600.99
2046.08	1684.46
2045.31	1735.71
2044.53	1703.23
2043.75	1632.12
2042.98	1596.45
2042.2	1686.29
2041.42	1653.83
2040.64	1653.56
2039.87	1556.79
2039.09	1688.39
2038.31	1607.72
2037.54	1552.8
2036.76	1687.55
2035.98	1629.42
2035.2	1613.09
2034.42	1542.14
2033.64	1644.67
2032.87	1596.23
2032.09	1660.19
2031.31	1675.96
2030.53	1640.37
2029.75	1729.97
2028.97	1614.16
2028.19	1674.85
2027.41	1610.42
2026.63	1699.96
2025.86	1686.85
2025.08	1664.12
2024.3	1676.67
2023.52	1727.68
2022.74	1663.3
2021.96	1608.55
2021.18	1640.32
2020.39	1684.89
2019.61	1671.8
2018.83	1655.51
2018.05	1725.68
2017.27	1741.4
2016.49	1683.5
2015.71	1728.02
2014.93	1702.14
2014.15	1772.23
2013.36	1698.37
2012.58	1698.09
2011.8	1675.43
2011.02	1668.76
2010.24	1665.28
2009.45	1744.9
2008.67	1760.59
2007.89	1718.76
2007.11	1731.26
2006.32	1804.42
2005.54	1746.65
2004.76	1800.63
2003.97	1758.84
2003.19	1729.82
2002.41	1707.19
2001.62	1812.2
2000.84	1792.76
2000.06	1821.16
1999.27	1801.73
1998.49	1750.42
1997.7	1746.94
1996.92	1772.15
1996.14	1771.85
1995.35	1806.61
1994.57	1777.63
1993.78	1745.49
1993	1745.2
1992.21	1846.8
1991.43	1840.12
1990.64	1744.33
1989.86	1871.34
1989.07	1746.93
1988.28	1778.45
1987.5	1752.71
1986.71	1803.31
1985.93	1831.63
1985.14	1764.55
1984.35	1745.19
1983.57	1767.15
1982.78	1712.83
1981.99	1836.46
1981.21	1845.68
1980.42	1781.85
1979.63	1784.73
1978.84	1755.86
1978.06	1768.26
1977.27	1774.32
1976.48	1739.11
1975.69	1783.25
1974.91	1729.02
1974.12	1852.44
1973.33	1817.24
1972.54	1880.36
1971.75	1822.98
1970.96	1848.04
1970.17	1895.27
1969.39	1752.36
1968.6	1821.77
1967.81	1834.13
1967.02	1824.33
1966.23	1824.02
1965.44	1817.39
1964.65	1794.93
1963.86	1857.93
1963.07	1800.66
1962.28	1787.7
1961.49	1853.84
1960.7	1847.2
1959.91	1837.41
1959.12	1868.72
1958.33	1786.21
1957.54	1874.42
1956.74	1883.59
1955.95	1845.36
1955.16	1870.32
1954.37	1838.42
1953.58	1907.6
1952.79	1878.86
1952	1834.35
1951.2	1875.08
1950.41	1795.86
1949.62	1786.1
1948.83	1823.66
1948.03	1889.6
1947.24	1832.51
1946.45	1863.74
1945.66	1907.58
1944.86	1866.28
1944.07	1850.2
1943.28	1960.2
1942.48	1918.91
1941.69	1893.38
1940.9	1893.07
1940.1	1927.4
1939.31	1779.08
1938.51	1857.49
1937.72	1891.81
1936.93	1856.87
1936.13	1856.56
1935.34	1875.13
1934.54	1912.56
1933.75	1890.23
1932.95	1871.04
1932.16	1917.89
1931.36	1936.43
1930.57	1939.25
1929.77	1857.23
1928.97	1878.91
1928.18	1913.15
1927.38	1919.11
1926.59	1868.55
1925.79	1924.75
1924.99	1867.92
1924.2	1920.97
1923.4	1958.31
1922.6	1989.36
1921.81	1885.5
1921.01	1831.86
1920.21	1906.82
1919.42	1972.35
1918.62	1993.97
1917.82	1965.42
1917.02	1990.17
1916.23	1936.57
1915.43	1848.52
1914.63	2023.63
1913.83	1872.95
1913.03	1969.72
1912.23	1919.29
1911.44	1984.71
1910.64	1934.3
1909.84	1987.18
1909.04	1924.27
1908.24	1961.49
1907.44	1951.77
1906.64	1895.16
1905.84	1916.73
1905.04	1969.55
1904.24	2037.99
1903.44	1878.26
1902.64	2015.44
1901.84	1946.37
1901.04	1983.52
1900.24	2048.78
1899.44	1898.55
1898.64	2004.38
1897.84	2016.53
1897.04	1947.53
1896.24	1931.6
1895.44	1962.48
1894.63	1940.32
1893.83	2061.63
1893.03	1939.67
1892.23	2082.77
1891.43	2038.77
1890.63	2069.6
1889.82	1916.55
1889.02	2093.83
1888.22	1965.76
1887.42	2037.07
1886.61	2014.93
1885.81	2002.13
1885.01	2020.48
1884.2	1979.67
1883.4	2041.59
1882.6	2022.57
1881.79	2103.12
1880.99	2018.79
1880.19	1993.57
1879.38	2086.52
1878.58	1983.57
1877.77	2005
1876.97	2085.47
1876.17	2057.15
1875.36	2081.66
1874.56	1963.27
1873.75	1953.62
1872.95	2130.3
1872.14	2052.32
1871.34	2089.23
1870.53	2036.12
1869.72	2076.12
1868.92	2007.51
1868.11	2143.67
1867.31	2056.46
1866.5	2043.71
1865.69	2108.49
1864.89	2074.03
1864.08	2073.68
1863.27	2023.75
1862.47	2066.79
1861.66	2004.48
1860.85	2128.05
1860.05	2121.49
1859.24	2043.72
1858.43	2102.21
1857.62	2086.38
1856.82	2113.88
1856.01	2156.85
1855.2	2106.98
1854.39	2122.1
1853.58	2062.97
1852.78	2084.27
1851.97	2087.02
1851.16	2154.68
1850.35	2163.59
1849.54	2123.05
1848.73	2094.88
1847.92	2162.5
1847.11	2180.66
1846.3	2103.09
1845.49	2173.76
1844.68	2167.22
1843.87	2111.29
1843.06	2129.45
1842.25	2092.07
1841.44	2178.1
1840.63	2236.34
1839.82	2269.89
1839.01	2155.42
1838.2	2013.23
1837.39	2093.04
1836.58	2135.84
1835.77	2076.93
1834.96	2165.93
1834.14	2190.21
1833.33	2109.76
1832.52	2195.63
1831.71	2121.37
1830.9	2179.5
1830.08	2139.12
1829.27	2188
1828.46	2055.33
1827.65	2202.64
1826.83	2140.76
1826.02	2189.6
1825.21	2195.38
1824.39	2195.01
1823.58	2185.42
1822.77	2163.54
1821.95	2196.98
1821.14	2178.17
1820.33	2251.53
1819.51	2177.44
1818.7	2226.2
1817.88	2222.76
1817.07	2203.97
1816.25	2249.63
1815.44	2261.53
1814.63	2215.13
1813.81	2208.62
1813	2183.71
1812.18	2226.27
1811.36	2179.91
1810.55	2222.46
1809.73	2329.36
1808.92	2184.94
1808.1	2172.31
1807.29	2309.8
1806.47	2208.33
1805.65	2263.08
1804.84	2186.16
1804.02	2296
1803.2	2203.78
1802.39	2249.32
1801.57	2310.13
1800.75	2236.32
1799.93	2248.18
1799.12	2263.09
1798.3	2198.5
1797.48	2207.3
1796.66	2216.1
1795.85	2304.35
1795.03	2224.51
1794.21	2196.64
1793.39	2318.46
1792.57	2253.93
1791.75	2305.46
1790.93	2308.12
1790.12	2295.53
1789.3	2276.83
1788.48	2227.62
1787.66	2279.11
1786.84	2275.67
1786.02	2302.74
1785.2	2332.84
1784.38	2344.65
1783.56	2338.15
1782.74	2310.33
1781.92	2245.94
1781.1	2315.64
1780.28	2397.5
1779.46	2436.69
1778.64	2366.24
1777.81	2390.2
1776.99	2335
1776.17	2438.09
1775.35	2267.25
1774.53	2382.5
1773.71	2449.02
1772.89	2205.27
1772.06	2369.12
1771.24	2323.11
1770.42	2301.44
1769.6	2377.04
1768.77	2388.8
1767.95	2336.74
1767.13	2451.79
1766.3	2354.17
1765.48	2460.07
1764.66	2465.73
1763.84	2316.54
1763.01	2398.11
1762.19	2437.16
1761.36	2467.1
1760.54	2506.12
1759.72	2414.69
1758.89	2390.02
1758.07	2316.83
1757.24	2340.7
1756.42	2425.18
1755.59	2412.65
1754.77	2372.85
1753.94	2457.28
1753.12	2387.19
1752.29	2532.17
1751.47	2437.86
1750.64	2440.48
1749.82	2391.63
1748.99	2560.73
1748.16	2487.66
1747.34	2517.5
1746.51	2438.41
1745.68	2389.6
1744.86	2419.44
1744.03	2443.22
1743.2	2467
1742.38	2442.4
1741.55	2448.03
1740.72	2375.09
1739.9	2483.45
1739.07	2473.97
1738.24	2434.29
1737.41	2551.64
1736.58	2514.98
1735.76	2547.76
1734.93	2453.76
1734.1	2580.09
1733.27	2543.45
1732.44	2494.75
1731.61	2440.04
1730.78	2524.06
1729.95	2541.72
1729.13	2417.69
1728.3	2498.66
1727.47	2489.2
1726.64	2515.89
1725.81	2666.09
1724.98	2554.2
1724.15	2463.42
1723.32	2538.27
1722.49	2592.03
1721.65	2564.5
1720.82	2491.84
1719.99	2521.51
1719.16	2530.1
1718.33	2529.68
1717.5	2514.21
1716.67	2492.73
1715.84	2594.53
1715.01	2654.21
1714.17	2593.65
1713.34	2584.19
1712.51	2655.86
1711.68	2478.18
1710.84	2672.98
1710.01	2579.43
1709.18	2660.06
1708.35	2587.56
1707.51	2635.15
1706.68	2628.7
1705.85	2652.25
1705.01	2741.79
1704.18	2507.39
1703.35	2650.9
1702.51	2668.44
1701.68	2778.9
1700.84	2724.48
1700.01	2685.06
1699.18	2660.63
1698.34	2687.14
1697.51	2695.67
1696.67	2731.15
1695.84	2712.72
1695	2649.39
1694.17	2738.74
1693.33	2657.47
1692.5	2674.97
1691.66	2815.12
1690.82	2763.79
1689.99	2793.23
1689.15	2682.12
1688.32	2705.58
1687.48	2687.19
1686.64	2797.31
1685.81	2701.21
1684.97	2894.94
1684.13	2730.16
1683.3	2789.43
1682.46	2747.15
1681.62	2797.44
1680.78	2740.25
1679.95	2829.31
1679.11	2742.3
1678.27	2795.53
1677.43	2833.84
1676.59	2779.67
1675.76	2883.56
1674.92	2859.22
1674.08	2819.98
1673.24	2888.05
1672.4	2774.32
1671.56	2839.4
1670.72	2865.72
1669.88	2829.49
1669.04	2888.57
1668.2	2864.26
1667.36	2908.42
1666.52	2934.72
1665.68	2972.9
1664.84	2871.23
1664	2977.84
1663.16	2986.25
1662.32	2893.56
1661.48	2904.96
1660.64	2972.84
1659.8	2966.39
1658.96	3066.92
1658.12	2977.26
1657.28	3080.73
1656.43	2922.78
1655.59	3088.59
1654.75	3079.15
1653.91	3048.94
1653.07	3152.31
1652.22	3190.35
1651.38	3118.59
1650.54	3103.23
1649.7	3173.89
1648.85	3051.75
1648.01	3279.56
1647.17	3193.02
1646.32	3293.26
1645.48	3319.37
1644.64	3306.95
1643.79	3211.58
1642.95	3373.95
1642.1	3388.18
1641.26	3470.52
1640.41	3351.5
1639.57	3513.74
1638.73	3421.39
1637.88	3580.6
1637.04	3603.65
1636.19	3614.87
1635.35	3676.36
1634.5	3737.84
1633.65	3716.5
1632.81	3866.63
1631.96	3919.17
1631.12	3918.5
1630.27	4009.42
1629.42	4138.72
1628.58	4126.2
1627.73	4290.87
1626.88	4316.71
1626.04	4419.29
1625.19	4583.83
1624.34	4645.02
1623.5	4626.52
1622.65	4805.68
1621.8	4863.85
1620.95	4865.97
1620.11	5112.82
1619.26	5073.62
1618.41	5202.44
1617.56	5292.91
1616.71	5312.63
1615.86	5358.86
1615.02	5458.09
1614.17	5639.75
1613.32	5600.51
1612.47	5935.17
1611.62	5822.3
1610.77	5924.31
1609.92	6064.54
1609.07	6031.14
1608.22	6309.55
1607.37	6143.77
1606.52	6322.09
1605.67	6300.43
1604.82	6428.69
1603.97	6451.1
1603.12	6655.69
1602.27	6572.28
1601.42	6441.91
1600.56	6531.85
1599.71	6783.27
1598.86	6467.96
1598.01	6669.4
1597.16	6600.75
1596.31	6617.23
1595.45	6633.7
1594.6	6424.29
1593.75	6546.37
1592.9	6483.67
1592.04	6506.01
1591.19	6375.91
1590.34	6360.16
1589.49	6218.41
1588.63	6331.61
1587.78	6148.9
1586.93	6115.63
1586.07	6152.65
1585.22	5735.83
1584.36	5693.86
1583.51	5648.98
1582.66	5609.97
1581.8	5696.78
1580.95	5543.68
1580.09	5592.46
1579.24	5512.54
1578.38	5327.39
1577.53	5209.53
1576.67	5164.8
1575.82	5047.01
1574.96	4996.48
1574.1	5056.97
1573.25	4857.48
1572.39	4839.12
1571.54	4835.37
1570.68	4694.41
1569.82	4734.47
1568.97	4727.82
1568.11	4610.29
1567.25	4545.32
1566.4	4567.87
1565.54	4572.92
1564.68	4458.41
1563.82	4457.65
1562.97	4497.69
1562.11	4476.52
1561.25	4385.42
1560.39	4320.57
1559.53	4351.87
1558.68	4266.66
1557.82	4251.37
1556.96	4195.32
1556.1	4078.16
1555.24	4217.16
1554.38	4201.89
1553.52	4160.43
1552.66	4209.17
1551.8	4246.26
1550.94	4103.04
1550.08	4058.72
1549.22	4148.14
1548.36	4089.3
1547.5	4169.96
1546.64	4177.96
1545.78	4058.14
1544.92	4008.07
1544.06	3923.16
1543.2	3951.52
1542.34	3997.29
1541.48	3947.26
1540.62	4030.74
1539.75	4053.25
1538.89	3924.92
1538.03	3959.05
1537.17	3958.37
1536.31	3963.48
1535.44	3954.1
1534.58	4011.39
1533.72	3822.34
1532.86	3981.04
1531.99	3907.93
1531.13	3915.94
1530.27	4007.94
1529.4	3937.76
1528.54	3980.5
1527.67	3846.68
1526.81	3982.03
1525.95	3807.74
1525.08	3783.94
1524.22	3835.35
1523.35	3912.77
1522.49	3857.16
1521.62	3995.26
1520.76	3745.99
1519.89	3933.19
1519.03	3842.94
1518.16	3876.95
1517.3	3853.17
1516.43	4002.68
1515.57	3785.43
1514.7	3891.6
1513.83	3789.9
1512.97	3916.23
1512.1	3831.88
1511.24	3736.01
1510.37	3891.13
1509.5	3838.54
1508.64	3935.92
1507.77	4018.85
1506.9	3914.39
1506.03	3928.12
1505.17	3855.41
1504.3	3742.38
1503.43	3903.04
1502.56	3836.13
1501.69	3844.11
1500.83	3803.14
1499.96	3894.59
1499.09	3905.43
1498.22	3927.78
1497.35	3860.93
1496.48	3883.27
1495.61	3876.85
1494.74	3741.03
1493.87	3878.39
1493	3782.86
1492.13	3796.58
1491.26	3841.9
1490.39	3887.2
1489.52	3892.27
1488.65	3917.45
1487.78	3824.88
1486.91	3976.39
1486.04	3898.2
1485.17	3822.9
1484.3	3865.29
1483.43	3835.93
1482.55	3841
1481.68	3848.94
1480.81	3968.71
1479.94	3907.82
1479.07	3838.35
1478.2	3866.34
1477.32	3745.32
1476.45	3822.03
1475.58	3918.76
1474.7	3872.26
1473.83	4054.86
1472.96	3922.46
1472.09	3821.59
1471.21	3935.41
1470.34	3857.47
1469.46	3896.86
1468.59	3893.32
1467.72	3944.13
1466.84	3877.68
1465.97	3931.33
1465.09	3996.4
1464.22	3984.27
1463.34	3880.71
1462.47	3880.04
1461.59	3973.63
1460.72	3932.96
1459.84	3903.72
1458.97	3883.06
1458.09	3953.75
1457.22	3984.47
1456.34	3949.53
1455.46	3851.84
1454.59	3925.34
1453.71	4018.79
1452.83	3946.8
1451.96	3954.67
1451.08	3971.08
1450.2	3921.94
1449.33	4035.25
1448.45	3914.89
1447.57	3934.15
1446.69	4047.4
1445.81	3995.44
1444.94	3986.2
1444.06	3911.49
1443.18	3953.51
1442.3	3918.68
1441.42	4108.63
1440.54	4193.26
1439.67	4007.66
1438.79	4197.5
1437.91	4011.95
1437.03	4176.14
1436.15	3990.66
1435.27	4171.85
1434.39	4029.06
1433.51	4113.59
1432.63	4158.32
1431.75	4106.48
1430.87	4173.91
1429.99	3926.2
1429.11	4172.46
1428.23	4197.28
1427.34	4091.57
1426.46	4261.07
1425.58	4257.5
1424.7	4134.81
1423.82	4134.09
1422.94	4164.56
1422.05	4246.04
1421.17	4197.12
1420.29	4309.73
1419.41	4192.83
1418.52	4158.11
1417.64	4287.66
1416.76	4352.04
1415.88	4255.03
1414.99	4339.21
1414.11	4536.56
1413.23	4380.15
1412.34	4379.38
1411.46	4341.85
1410.57	4403.32
1409.69	4473.24
1408.81	4404.61
1407.92	4463.2
1407.04	4530.26
1406.15	4396.66
1405.27	4520.21
1404.38	4640.88
1403.5	4374.6
1402.61	4599.73
1401.73	4497.3
1400.84	4462.65
1399.95	4535.25
1399.07	4630.39
1398.18	4607.02
1397.3	4575.19
1396.41	4605.42
1395.52	4827.37
1394.64	4846.27
1393.75	4710.13
1392.86	4844.58
1391.98	4883.19
1391.09	4758.38
1390.2	4836.42
1389.31	4967.94
1388.42	4958.63
1387.54	4971.84
1386.65	5058.24
1385.76	5068.62
1384.87	5219.68
1383.98	5185.01
1383.09	5147.54
1382.21	5200.08
1381.32	5112.01
1380.43	5172.97
1379.54	5264.82
1378.65	5255.48
1377.76	5451.25
1376.87	5264.88
1375.98	5345.42
1375.09	5428.75
1374.2	5615.93
1373.31	5600.92
1372.42	5630.82
1371.53	5584.93
1370.64	5749.51
1369.74	5919.65
1368.85	5764.34
1367.96	5682
1367.07	5927.77
1366.18	5842.63
1365.29	6032.22
1364.39	5947.09
1363.5	6038.52
1362.61	6171.95
1361.72	6305.32
1360.82	6127.78
1359.93	6191.12
1359.04	6296.42
1358.15	6194.55
1357.25	6193.47
1356.36	6407.85
1355.47	6356.38
1354.57	6570.65
1353.68	6429.67
1352.78	6786.47
1351.89	6631.51
1351	6831.62
1350.1	6802.48
1349.21	7022.04
1348.31	6973.32
1347.42	7103.38
1346.52	7208.27
1345.63	6969.66
1344.73	7177.83
1343.83	7517.13
1342.94	7387.43
1342.04	7330.33
1341.15	7591.3
1340.25	7548.14
1339.35	7588.65
1338.46	7723.96
1337.56	7655.7
1336.66	7846.69
1335.77	7970.74
1334.87	7963.77
1333.97	8073.82
1333.07	8236.75
1332.18	8302.15
1331.28	8253.36
1330.38	8366.07
1329.48	8484.3
1328.58	8418.8
1327.69	8728.98
1326.79	8596.69
1325.89	8600.75
1324.99	8679.9
1324.09	8653.36
1323.19	8696.33
1322.29	9017.25
1321.39	9043.46
1320.49	9150.25
1319.59	8973.62
1318.69	9147.04
1317.79	9167.66
1316.89	9254.91
1315.99	9292.16
1315.09	9201.71
1314.19	9405.47
1313.29	9270.63
1312.39	9230.17
1311.49	9261.84
1310.59	9315.68
1309.68	9596.88
1308.78	9390.05
1307.88	9438.3
1306.98	9079.13
1306.08	9108.02
1305.17	9352.99
1304.27	9290.42
1303.37	9261.09
1302.47	9259.47
1301.56	9216.32
1300.66	9026.48
1299.76	9154.97
1298.85	9023.32
1297.95	9071.53
1297.05	8934.41
1296.14	8943.9
1295.24	8707.3
1294.33	9009.88
1293.43	8903.26
1292.52	8760.76
1291.62	8811.72
1290.71	8594.69
1289.81	8648.42
1288.9	8602.72
1288	8565.31
1287.09	8536.2
1286.19	8388.41
1285.28	8356.58
1284.38	8079.19
1283.47	8110.88
1282.56	8087.39
1281.66	8030.81
1280.75	8068
1279.84	7928.74
1278.94	7897.03
1278.03	7752.34
1277.12	7610.45
1276.21	7474.12
1275.31	7588.5
1274.4	7488.02
1273.49	7387.58
1272.58	7278.92
1271.67	7104.23
1270.77	6913.09
1269.86	7041.2
1268.95	7039.97
1268.04	6758.17
1267.13	7064.99
1266.22	6761.29
1265.31	6617.15
1264.4	6706.69
1263.49	6562.61
1262.58	6660.37
1261.67	6560.3
1260.76	6419.07
1259.85	6398.72
1258.94	6403.08
1258.03	6476.08
1257.12	6205.95
1256.21	6163.7
1255.3	6137.92
1254.39	6210.91
1253.48	6146.73
1252.56	6167.59
1251.65	6139.08
1250.74	5959.81
1249.83	5851.87
1248.92	5905.65
1248	5803.23
1247.09	5832.34
1246.18	5760.1
1245.27	6016.51
1244.35	5793.67
1243.44	5855.61
1242.53	5624.67
1241.61	5752.3
1240.7	5693.83
1239.78	5780.37
1238.87	5659
1237.96	5545.88
1237.04	5410.93
1236.13	5598.61
1235.21	5491.02
1234.3	5408.07
1233.38	5404.39
1232.47	5515.44
1231.55	5312.35
1230.64	5213.11
1229.72	5239.49
1228.81	5306.82
1227.89	5292.23
1226.97	5315.86
1226.06	5282.18
1225.14	5308.53
1224.22	5266.68
1223.31	5178.49
1222.39	5109.42
1221.47	5133.05
1220.56	5205.74
1219.64	5193.92
1218.72	4999.56
1217.8	5085.85
1216.89	5087.67
1215.97	5217.49
1215.05	5074.99
1214.13	5049.59
1213.21	5124.91
1212.29	5075.02
1211.37	5000.67
1210.46	4852.89
1209.54	4939.07
1208.62	4987.15
1207.7	4994.42
1206.78	5001.69
1205.86	4946.46
1204.94	4964.6
1204.02	4958.29
1203.1	4924.82
1202.18	4717.54
1201.26	4814.46
1200.34	5009.09
1199.41	4932.2
1198.49	4863.48
1197.57	4895.18
1196.65	4747.81
1195.73	4744.26
1194.81	4811.23
1193.88	4775.13
1192.96	4785.13
1192.04	4754.46
1191.12	4718.39
1190.2	4666.07
1189.27	4781.75
1188.35	4802.57
1187.43	4769.22
1186.5	4846.9
1185.58	4775.66
1184.66	4839.78
1183.73	4719.84
1182.81	4705.48
1181.88	4585.61
1180.96	4573.98
1180.04	4835.5
1179.11	4758.93
1178.19	4614.81
1177.26	4592.37
1176.34	4680.74
1175.41	4671.8
1174.49	4476.47
1173.56	4562.11
1172.63	4523.49
1171.71	4636.1
1170.78	4637.98
1169.86	4518.39
1168.93	4674.12
1168	4713.76
1167.08	4545.67
1166.15	4588.02
1165.22	4498.21
1164.3	4621.45
1163.37	4636.8
1162.44	4530.86
1161.51	4503.11
1160.59	4486.15
1159.66	4512.29
1158.73	4503.41
1157.8	4602.25
1156.87	4482.97
1155.94	4484.87
1155.01	4333.35
1154.09	4625.9
1153.16	4439.44
1152.23	4430.58
1151.3	4435.17
1150.37	4380.6
1149.44	4473.93
1148.51	4282.28
1147.58	4375.59
1146.65	4417.81
1145.72	4441.2
1144.79	4298.04
1143.86	4337.57
1142.92	4205.22
1141.99	4242.06
1141.06	4152.72
1140.13	4243.24
1139.2	4325.67
1138.27	4134.42
1137.34	4152.46
1136.4	4173.18
1135.47	4234.11
1134.54	4246.77
1133.61	4130.75
1132.67	4154.14
1131.74	4054.25
1130.81	4182.13
1129.87	4084.96
1128.94	3969.07
1128.01	4067.44
1127.07	4101.52
1126.14	4183.77
1125.2	4158.94
1124.27	4043.15
1123.34	4125.36
1122.4	4103.23
1121.47	4059.71
1120.53	4067.01
1119.6	4028.86
1118.66	4081.61
1117.73	4016.74
1116.79	4085.5
1115.85	4028.67
1114.92	4019.94
1113.98	4032.58
1113.05	4023.85
1112.11	4135.26
1111.17	4019.75
1110.24	3938.98
1109.3	4015.66
1108.36	3942.91
1107.42	3934.21
1106.49	3965.51
1105.55	3996.8
1104.61	3974.76
1103.67	3968.73
1102.74	3986.67
1101.8	3972.64
1100.86	3852.06
1099.92	4005.85
1098.98	4018.46
1098.04	3945.85
1097.1	3937.16
1096.16	3957.76
1095.22	3973.02
1094.29	4004.24
1093.35	3974.26
1092.41	3976.22
1091.47	3959.55
1090.52	3961.51
1089.58	3889.03
1088.64	3883.02
1087.7	3786.67
1086.76	3852.41
1085.82	3817.19
1084.88	3832.45
1083.94	3781.31
1083	3799.22
1082.05	3822.44
1081.11	3797.87
1080.17	3805.15
1079.23	3785.9
1078.29	3846.24
1077.34	3744.77
1076.4	3828.96
1075.46	3754.04
1074.51	3854.1
1073.57	3932.92
1072.63	3852.73
1071.68	3846.74
1070.74	3846.05
1069.8	3863.91
1068.85	3849.98
1067.91	3732.81
1066.96	3872.43
1066.02	3797.64
1065.07	3765.21
1064.13	3841.25
1063.18	3753.28
1062.24	3773.77
1061.29	3786.32
1060.35	3785.64
1059.4	3761.18
1058.45	3779
1057.51	3786.26
1056.56	3719.54
1055.62	3869.42
1054.67	3871.37
1053.72	3709.63
1052.78	3714.24
1051.83	3689.82
1050.88	3863.33
1049.93	3902.22
1048.99	3740.61
1048.04	3708.29
1047.09	3697.08
1046.14	3696.42
1045.19	3595.59
1044.24	3805.79
1043.3	3712.88
1042.35	3754.37
1041.4	3872.24
1040.45	3700.36
1039.5	3668.1
1038.55	3688.5
1037.6	3819.46
1036.65	3726.66
1035.7	3736.52
1034.75	3785.84
1033.8	3706.25
1032.85	3666.14
1031.9	3704.93
1030.95	3635.91
1030	3708.86
1029.04	3731.85
1028.09	3744.32
1027.14	3693.73
1026.19	3737.72
1025.24	3729.18
1024.29	3633.98
1023.33	3782.97
1022.38	3711.43
1021.43	3739.63
1020.48	3710.1
1019.52	3691.07
1018.57	3653.69
1017.62	3550.76
1016.66	3597.32
1015.71	3649.1
1014.75	3614.38
1013.8	3590.15
1012.85	3592.12
1011.89	3670.07
1010.94	3624.88
1009.98	3663.52
1009.03	3723.08
1008.07	3565.35
1007.12	3645.84
1006.16	3629.49
1005.21	3694.25
1004.25	3617.72
1003.3	3768.77
1002.34	3671.34
1001.38	3683.76
1000.43	3599.45
999.47	3543.92
998.513	3446.6
997.557	3526.97
996.599	3620.38
995.642	3643.23
994.685	3600.8
993.727	3683.7
992.769	3667.37
991.811	3577.98
990.853	3634.75
989.895	3644.53
988.937	3599.53
987.978	3400.69
987.019	3632.14
986.06	3610.63
985.101	3703.82
984.142	3583.27
983.182	3540.94
982.223	3654.93
981.263	3604.79
980.303	3505.18
979.343	3483.72
978.382	3660.12
977.422	3630.83
976.461	3575.53
975.5	3694.57
974.539	3644.48
973.578	3682.84
972.616	3598.96
971.655	3603.52
970.693	3717.25
969.731	3656.8
968.769	3534.01
967.807	3673.67
966.845	3623.66
965.882	3635.99
964.919	3721.03
963.956	3655.46
962.993	3623.65
962.03	3752.76
961.066	3552.29
960.103	3590.56
959.139	3589.92
958.175	3713.76
957.211	3635.3
956.246	3647.61
955.282	3530.31
954.317	3659.25
953.352	3596.41
952.387	3567.27
951.422	3636.56
950.457	3638.49
949.491	3653.37
948.526	3717.43
947.56	3633.94
946.594	3615.17
945.627	3599
944.661	3606.11
943.694	3538.21
942.728	3664.29
941.761	3555.04
940.794	3696.57
939.826	3714
938.859	3633.22
937.891	3555.06
936.923	3580.25
935.955	3615.77
934.987	3661.59
934.019	3537.01
933.05	3727.39
932.082	3610.58
931.113	3571.22
930.144	3666.04
929.175	3678.27
928.205	3620.87
927.236	3591.86
926.266	3704.64
925.296	3590.56
924.326	3571.87
923.356	3599.57
922.385	3681.36
921.415	3513.28
920.444	3687.76
919.473	3707.69
918.502	3652.96
917.53	3539.05
916.559	3623.34
915.587	3532.63
914.616	3634.89
913.644	3611.09
912.671	3600.15
911.699	3596.93
910.726	3575.72
909.754	3567.36
908.781	3630.96
907.808	3599.47
906.835	3634.79
905.861	3747.13
904.888	3630.91
903.914	3632.82
902.94	3529.49
901.966	3474.95
900.991	3656.51
900.017	3604.54
899.042	3591.06
898.068	3603.24
897.093	3600.02
896.117	3763.44
895.142	3698.68
894.166	3610.88
893.191	3651.23
892.215	3640.32
891.239	3624.29
890.263	3649.25
889.286	3594.82
888.31	3517.37
887.333	3601.2
886.356	3623.58
885.379	3622.92
884.402	3655.52
883.424	3675.32
882.446	3605.62
881.469	3671.44
880.491	3614.54
879.512	3642
878.534	3718
877.556	3648.34
876.577	3663.01
875.598	3751.73
874.619	3771.48
873.64	3666.13
872.66	3662.91
871.681	3654.59
870.701	3715.17
869.721	3709.39
868.741	3542.93
867.761	3685.1
866.78	3771.12
865.799	3742.4
864.819	3751.92
863.838	3751.24
862.856	3656.28
861.875	3844.13
860.894	3708.45
859.912	3878.39
858.93	3658.73
857.948	3810.8
856.966	3807.57
855.983	3814.51
855.001	3844.35
854.018	3802.95
853.035	3738.68
852.052	3928.72
851.068	3854.28
850.085	3917.12
849.101	3733.43
848.117	3831.85
847.133	3879.43
846.149	3761.88
845.165	3753.58
844.18	3773.21
843.195	3825.84
842.21	3906.37
841.225	3783.85
840.24	3788.23
839.254	3858.58
838.269	3875.63
837.283	3895.22
836.297	3755.06
835.311	3807.61
834.324	3680.19
833.338	3844.24
832.351	3727
831.364	3718.72
830.377	3712.98
829.39	3783.21
828.403	3747.08
827.415	3662.86
826.427	3682.44
825.439	3762.75
824.451	3708.94
823.463	3670.32
822.474	3669.65
821.485	3719.56
820.497	3605.12
819.508	3814.26
818.518	3793.35
817.529	3658.74
816.539	3655.55
815.55	3740.76
814.56	3694.63
813.569	3615.68
812.579	3703.38
811.589	3770.86
810.598	3666.7
809.607	3761.91
808.616	3723.39
807.625	3692.45
806.633	3790.12
805.642	3638.16
804.65	3587.08
803.658	3692.28
802.666	3638.69
801.674	3668.26
800.681	3715.46
799.689	3533.45
798.696	3699
797.703	3778.89
796.71	3737.92
795.716	3674.33
794.723	3578.04
793.729	3642.8
792.735	3785.51
791.741	3732.01
790.747	3686.07
789.752	3660.26
788.758	3669.65
787.763	3696.62
786.768	3736.15
785.773	3798.27
784.777	3764.93
783.782	3676.35
782.786	3766.07
781.79	3664.97
780.794	3722.03
779.798	3706.29
778.801	3675.51
777.804	3679.86
776.808	3701.76
775.811	3703.59
774.813	3803.2
773.816	3747.36
772.819	3816.85
771.821	3660.8
770.823	3782.89
769.825	3794.72
768.827	3751.46
767.828	3783.32
766.829	3720.05
765.831	3827
764.832	3851.32
763.832	3680.48
762.833	3769.87
761.833	3716.65
760.834	3788.5
759.834	3800.31
758.834	3844.61
757.833	3831.41
756.833	3800.72
755.832	3859.99
754.831	3834.31
753.83	3773.67
752.829	3738.02
751.828	3729.85
750.826	3789.07
749.825	3823.32
748.823	3752.76
747.821	3744.59
746.818	3708.98
745.816	3805.56
744.813	3727.57
743.81	3701.96
742.807	3636.48
741.804	3747.96
740.801	3687.48
739.797	3694.28
738.793	3828.09
737.789	3782.57
736.785	3692.25
735.781	3709
734.776	3708.32
733.772	3685.25
732.767	3599.99
731.762	3835.63
730.757	3655.87
729.751	3660.17
728.746	3806.18
727.74	3651.38
726.734	3752.6
725.728	3682.34
724.721	3661.8
723.715	3623.87
722.708	3715.09
721.701	3764.07
720.694	3671.53
719.687	3668.37
718.679	3729.74
717.672	3805.97
716.664	3715.97
715.656	3814.5
714.648	3751.81
713.639	3775.91
712.631	3720.69
711.622	3737.35
710.613	3739.15
709.604	3832.61
708.595	3809.61
707.585	3915.4
706.576	3865.16
705.566	3931.3
704.556	3938
703.546	3830.87
702.535	3825.22
701.525	3854.2
700.514	3781.77
699.503	3946.76
698.492	3839.72
697.48	3848.9
696.469	3806.18
695.457	3887.03
694.445	3827.02
693.433	3910.31
692.421	3912.06
691.409	3871.83
690.396	3752.62
689.383	3855.6
688.37	3857.36
687.357	3790.03
686.344	3769.6
685.33	3870.04
684.316	3839.74
683.302	3890.81
682.288	3808.74
681.274	3766.14
680.259	3886.2
679.245	3826.36
678.23	3884.78
677.215	3933.32
676.2	3745.45
675.184	3882.64
674.169	3891.77
673.153	3765.54
672.137	3890.34
671.121	3786.29
670.104	3876.61
669.088	3807.04
668.071	3830.93
667.054	3894.14
666.037	3844.27
665.02	3848.47
664.002	3744.57
662.985	3839.69
661.967	3846.35
660.949	3924.23
659.93	3805.65
658.912	3881.05
657.893	3872.98
656.875	3749.57
655.856	3925.53
654.837	3792.34
653.817	3845.6
652.798	3876.77
651.778	3814.77
650.758	3838.58
649.738	3796.21
648.718	3751.41
647.697	3932
646.677	3906.79
645.656	3915.86
644.635	3885.76
643.613	3752.85
642.592	3950.41
641.57	3783.28
640.549	3914.71
639.527	3823.47
638.505	3827.66
637.482	3861.19
636.46	3826.25
635.437	3889.1
634.414	3959.26
633.391	3841.24
632.368	3899.17
631.344	3910.66
630.32	3853.77
629.297	3828.65
628.272	3823.06
627.248	3868.73
626.224	3843.61
625.199	3955.14
624.174	3854.39
623.149	3897.58
622.124	3862.73
621.099	3944.91
620.073	3956.37
619.048	3928.83
618.022	3928.11
616.995	3839.67
615.969	3890.12
614.943	3952.72
613.916	3913.03
612.889	3926.92
611.862	3862.91
610.835	3944.94
609.807	3917.45
608.78	3941.05
607.752	3974.38
606.724	4029.57
605.696	3907.26
604.667	3867.64
603.639	3986.02
602.61	3997.44
601.581	3945.68
600.552	3947.38
599.522	3728.07
598.493	3926.5
597.463	3933.05
596.433	3908.05
595.403	4009.26
594.373	4018.23
593.342	3850.09
592.311	3868.78
591.281	3872.92
590.25	3976.46
589.218	3825.43
588.187	3914.4
587.155	3942.76
586.123	3925.07
585.091	3868.62
584.059	3901.82
583.027	3939.84
581.994	3922.16
580.961	3875.45
579.928	3913.45
578.895	3980.48
577.862	3989.42
576.828	3979.01
575.795	3954.09
574.761	3955.78
573.727	3933.29
572.692	3898.72
571.658	3835.17
570.623	3943.18
569.588	3809.59
568.553	3862.02
567.518	3899.94
566.482	3889.56
565.447	3937.12
564.411	3830.2
563.375	3947.73
562.339	3869.79
561.302	3866.67
560.265	4001
559.229	3836.3
558.192	3869.34
557.154	3904.78
556.117	3981.17
555.08	3951.52
554.042	3885.74
553.004	3940.42
551.966	3990.26
550.927	4032.86
549.889	3902.12
548.85	4036.18
547.811	3956.02
546.772	3909.58
545.733	4036.34
544.693	3898.51
543.653	3950.68
542.614	4017.27
541.574	4100.65
540.533	4073.45
539.493	4022.24
538.452	3985.46
537.411	3857.42
536.37	4142.47
535.329	3952.03
534.288	4116.93
533.246	3981.76
532.204	3995.42
531.162	3985.08
530.12	4087.49
529.078	3995.59
528.035	4011.64
526.992	4087.61
525.949	4101.23
524.906	4081.3
523.863	4092.52
522.819	4158.84
521.775	4100.58
520.731	4224.35
519.687	4156.52
518.643	4129.42
517.598	4157.37
516.554	4089.6
515.509	4383.12
514.464	4379.91
513.418	4326.48
512.373	4603.06
511.327	4523.31
510.281	4563.1
509.235	4571.81
508.189	4527.95
507.142	4491.27
506.096	4416.4
505.049	4482.44
504.002	4433.85
502.955	4287.41
501.907	4131.47
500.859	4233.32
499.812	4077.45
498.764	4100.54
497.715	4040.16
496.667	4001.25
495.618	4045.8
494.569	4138.01
493.52	4058.6
492.471	4062.61
491.422	3952.26
490.372	4068.24
489.323	4024.62
488.273	4100.06
487.222	4154.05
486.172	4098.53
485.121	4219.13
484.071	4211.21
483.02	4284.17
481.969	4397.53
480.917	4327.75
479.866	4343.59
478.814	4511.54
477.762	4579.62
476.71	4400.56
475.657	4373.61
474.605	4351.42
473.552	4217.62
472.499	4188.34
471.446	4201.8
470.393	4151.18
469.339	4219.22
468.286	4059.47
467.232	4255.6
466.178	3979.69
465.123	4235.04
464.069	4170.24
463.014	4138.65
461.959	4213.71
460.904	4025.74
459.849	4176.61
458.793	4358.21
457.738	4054.27
456.682	4150.59
455.626	4102.47
454.569	4153.78
453.513	4235.82
452.456	4301.28
451.399	4156.18
450.342	4176.69
449.285	4090.78
448.228	4139.67
447.17	4115.26
446.112	4199.57
445.054	4052.29
443.996	4235.8
442.938	4114.55
441.879	4104.33
440.82	4169.67
439.761	4138.21
438.702	4205.88
437.642	4257.01
436.583	3966.02
435.523	4113.88
434.463	4106.04
433.403	4081.69
432.342	3972.48
431.282	4202.74
430.221	4081.76
429.16	4168.18
428.099	4160.33
427.037	4164.26
425.976	4267.1
424.914	4047.34
423.852	4201.95
422.79	4229.4
421.727	4068.6
420.664	4119.6
419.602	4189.39
418.539	4245.05
417.475	4152.55
416.412	4227.01
415.348	4129.84
414.285	4241.88
413.221	4161.19
412.156	4134.57
411.092	4298.21
410.028	4168.25
408.963	4160.43
407.898	4274.67
406.833	4149.48
405.767	4212.06
404.702	4197.19
403.636	4140.11
402.57	4179.2
401.504	4103.39
400.437	4245.62
399.371	4125.29
398.304	4147.95
397.237	4140.14
396.17	4132.34
395.102	4140.93
394.035	4142.5
392.967	4120.65
391.899	4051.99
390.831	4121.45
389.762	4158.11
388.694	4206.46
387.625	4128.48
386.556	4204.89
385.487	4178.38
384.417	4098.11
383.348	4078.64
382.278	4075.54
381.208	4177.58
380.138	4193.15
379.067	4154.99
377.997	4238.27
376.926	4137.09
375.855	4227.35
374.784	4088.86
373.712	4183.76
372.641	4185.31
371.569	4163.53
370.497	4218.72
369.425	4117.66
368.352	4028.3
367.28	4099.8
366.207	4036.11
365.134	4177.48
364.061	4095.16
362.987	4168.92
361.914	4047.05
360.84	4092.85
359.766	4061.82
358.691	4009.86
357.617	4195.25
356.542	4092.1
355.468	4196
354.393	4083.59
353.317	4124.67
352.242	4093.68
351.166	4125.44
350.09	4212.97
349.014	4179.65
347.938	4195.13
346.862	4138.6
345.785	4119.24
344.708	4253.12
343.631	4175.72
342.554	4142.45
341.476	4150.95
340.399	4143.21
339.321	4137.79
338.243	4178.75
337.164	4187.24
336.086	4158.63
335.007	4148.58
333.928	4235.85
332.849	4239.69
331.77	4269
330.69	4247.36
329.611	4276.66
328.531	4273.54
327.451	4180.15
326.37	4258.04
325.29	4331.28
324.209	4226.36
323.128	4325.02
322.047	4236.33
320.966	4286.4
319.884	4283.28
318.803	4236.25
317.721	4179.99
316.639	4202.31
315.556	4159.94
314.474	4309.26
313.391	4225.33
312.308	4342.27
311.225	4214.5
310.141	4202.17
309.058	4231.37
307.974	4126.77
306.89	4303.58
305.806	4226.67
304.721	4341.15
303.637	4317.28
302.552	4327.98
301.467	4246.52
300.382	4257.24
299.296	4316.32
298.211	4333.93
297.125	4457.44
296.039	4424.37
294.953	4326.87
293.866	4519.35
292.78	4456.38
291.693	4464.73
290.606	4657.07
289.518	4568.82
288.431	4538.07
287.343	4482.05
286.255	4488.1
285.167	4533.2
284.079	4350.87
282.991	4494.74
281.902	4429.59
280.813	4263.45
279.724	4427.92
278.635	4502.82
277.545	4458.37
276.455	4386.41
275.365	4344.29
274.275	4416.85
273.185	4507.73
272.094	4465.62
271.004	4524.36
269.913	4473.09
268.821	4598.26
267.73	4530.96
266.638	4642.32
265.547	4586.49
264.455	4516.94
263.362	4408.5
262.27	4714.33
261.177	4628.78
260.085	4611.89
258.992	4492.08
257.898	4552.97
256.805	4371.49
255.711	4553.54
254.617	4511.54
253.523	4519.82
252.429	4523.53
251.335	4458.72
250.24	4565.21
249.145	4379.4
248.05	4453.9
246.955	4482.73
245.859	4518.39
244.763	4428.56
243.667	4505.28
242.571	4495.3
241.475	4517.25
240.378	4386.44
239.281	4440.32
238.185	4528.36
237.087	4295.08
235.99	4403.62
234.892	4557.67
233.795	4445.22
232.697	4681.16
231.598	4511.82
230.5	4431.31
229.401	4514.66
228.302	4481.95
227.203	4642.61
226.104	4512.09
225.005	4558.99
223.905	4483.1
222.805	4600.44
221.705	4547.3
220.605	4625.96
219.504	4627.35
218.403	4646.92
217.302	4666.47
216.201	4629.26
215.1	4662.43
213.998	4831.76
212.897	4660.66
211.795	4603.06
210.692	4731.47
209.59	4875.71
208.487	4877.05
207.384	4760.51
206.281	4768.67
205.178	4781.36
204.075	4834.83
202.971	4795.4
201.867	4812.61
200.763	4752.82
199.659	4819.83
198.554	4624.26
197.45	4842.89
196.345	4817.08
195.24	4850.1
194.134	4803.94
193.029	4782.68
191.923	4885.77
190.817	4758.25
189.711	4829.67
188.604	4876.2
187.498	4705.84
186.391	4765.93
185.284	4868.9
184.177	4827.33
183.069	4779.01
181.962	4818.72
180.854	4811.04
179.746	4882.32
178.637	4766.35
177.529	4855.65
176.42	4818.65
175.311	4734.32
174.202	4852.88
173.093	4705.47
171.983	4923.13
170.873	4881.64
169.763	4725.3
168.653	4954.09
167.543	4854.09
166.432	4934.2
165.321	4836.48
164.21	4945.82
163.099	4987.62
161.988	4847.21
160.876	4907.01
159.764	4915.07
158.652	4788.24
157.54	4848.01
156.427	4927.98
155.314	4760.79
154.201	4867.7
153.088	4846.56
151.975	4906.26
150.861	4844.71
149.748	4868.48
148.634	4804.71
147.519	4978.8
146.405	4957.66
145.29	4837.85
144.175	4908.68
143.06	4972.76
141.945	4864.22
140.829	4955.18
139.714	4963.19
138.598	4892.8
137.482	5019.53
136.365	4908.84
135.249	5026.57
134.132	5032.33
133.015	5078.37
131.898	5001.31
130.78	5112.22
129.663	5010.59
128.545	5199.73
127.427	4950.54
126.309	5195.51
125.19	5207.92
124.071	5202.46
122.952	5170.18
121.833	5160.26
120.714	5246.38
119.594	5249.84
118.475	5268.93
117.355	5359.44
116.234	5492.32
115.114	5504.66
113.993	5483.53
112.873	5435.64
111.752	5508.19
110.63	5366.67
109.509	5265.33
108.387	5068.19
107.265	5105.1
106.143	4966
105.021	4757.89
103.898	4687.94
102.775	4535.63
101.652	4512.5
100.529	4286.84
