3201.25	993.859
3200.65	1002.28
3200.06	1044.24
3199.47	1018.82
3198.87	972.362
3198.28	997.467
3197.68	1081.48
3197.09	1039.24
3196.5	1068.53
3195.9	1034.72
3195.31	1013.54
3194.71	1068.05
3194.12	1021.64
3193.52	1021.48
3192.93	1038.14
3192.33	1037.98
3191.74	1067.24
3191.14	1100.69
3190.55	1096.32
3189.95	1054.16
3189.36	1095.99
3188.76	1066.43
3188.17	1083.06
3187.57	1095.49
3186.97	1217.03
3186.38	1032.22
3185.78	990.111
3185.19	1174.53
3184.59	1077.89
3183.99	1086.11
3183.4	1056.6
3182.8	1123.51
3182.21	1123.34
3181.61	1190.23
3181.01	1055.96
3180.42	1068.37
3179.82	1101.72
3179.22	1072.23
3178.63	1072.07
3178.03	1038.41
3177.43	1121.98
3176.83	1117.63
3176.24	1117.46
3175.64	1062.89
3175.04	1150.59
3174.44	1037.47
3173.85	1133.51
3173.25	1191.89
3172.65	1174.99
3172.05	1112.1
3171.45	1162.09
3170.86	1149.38
3170.26	1190.99
3169.66	1253.48
3169.06	1161.39
3168.46	1207.16
3167.86	1215.33
3167.27	1148.33
3166.67	1123.11
3166.07	1185.55
3165.47	1160.33
3164.87	1243.62
3164.27	1230.91
3163.67	1226.56
3163.07	1234.71
3162.47	1176.14
3161.87	1226
3161.27	1184.12
3160.67	1188.11
3160.07	1150.41
3159.47	1200.25
3158.87	1229.24
3158.27	1245.72
3157.67	1245.53
3157.07	1178.7
3156.47	1232.66
3155.87	1311.58
3155.27	1178.16
3154.67	1223.77
3154.07	1252.72
3153.47	1202.59
3152.87	1244.02
3152.27	1223.03
3151.67	1135.5
3151.07	1264.25
3150.46	1155.94
3149.86	1197.34
3149.26	1247.04
3148.66	1201.14
3148.06	1358.86
3147.46	1238.17
3146.86	1287.83
3146.25	1246.1
3145.65	1220.99
3145.05	1312.16
3144.45	1195.71
3143.85	1295.16
3143.24	1290.81
3142.64	1332.11
3142.04	1340.21
3141.44	1273.63
3140.83	1290.03
3140.23	1310.57
3139.63	1347.69
3139.02	1256.27
3138.42	1301.68
3137.82	1334.64
3137.21	1334.44
3136.61	1267.94
3136.01	1396.18
3135.4	1342.11
3134.8	1433.03
3134.2	1296.16
3133.59	1366.35
3132.99	1428.24
3132.39	1374.21
3131.78	1390.56
3131.18	1402.76
3130.57	1386
3129.97	1406.47
3129.36	1414.53
3128.76	1356.42
3128.15	1368.61
3127.55	1446.96
3126.95	1401.27
3126.34	1372.12
3125.74	1285.14
3125.13	1326.26
3124.53	1462.38
3123.92	1470.42
3123.31	1399.99
3122.71	1383.26
3122.1	1440.85
3121.5	1457.14
3120.89	1518.83
3120.29	1605.26
3119.68	1489.49
3119.07	1493.39
3118.47	1427.16
3117.86	1497.06
3117.26	1496.83
3116.65	1418.27
3116.04	1409.81
3115.44	1430.2
3114.83	1664.88
3114.22	1475.09
3113.62	1652.01
3113.01	1487
3112.4	1610.33
3111.8	1704.79
3111.19	1581.02
3110.58	1539.61
3109.97	1629.93
3109.37	1489.76
3108.76	1584.17
3108.15	1678.55
3107.54	1575.46
3106.93	1723.28
3106.33	1653.11
3105.72	1648.75
3105.11	1697.83
3104.5	1656.47
3103.89	1668.54
3103.29	1655.96
3102.68	1705.01
3102.07	1712.97
3101.46	1688.07
3100.85	1613.89
3100.24	1781.99
3099.63	1736.56
3099.02	1732.19
3098.42	1649.84
3097.81	1743.97
3097.2	1727.3
3096.59	1661.4
3095.98	1652.94
3095.37	1734.71
3094.76	1709.84
3094.15	1754.68
3093.54	1721.62
3092.93	1803.33
3092.32	1741.58
3091.71	1831.46
3091.1	1814.79
3090.49	1839.09
3089.88	1797.86
3089.27	1871.29
3088.66	1797.31
3088.05	1780.66
3087.43	1919.55
3086.82	1845.6
3086.21	1796.21
3085.6	1795.94
3084.99	1803.85
3084.38	1803.57
3083.77	1885.08
3083.16	1876.62
3082.54	1904.95
3081.93	1937.35
3081.32	1892.1
3080.71	1957.19
3080.1	1928.3
3079.49	1960.68
3078.87	1935.88
3078.26	1837.58
3077.65	1967.95
3077.04	2037.05
3076.42	1959.19
3075.81	1971.13
3075.2	1930.03
3074.59	1970.53
3073.97	2068.13
3073.36	1933.22
3072.75	2051.19
3072.13	1993.79
3071.52	2107.63
3070.91	2042.09
3070.29	2078.46
3069.68	1988.5
3069.07	1975.97
3068.45	2044.92
3067.84	2089.41
3067.23	2093.17
3066.61	2137.63
3066	2059.96
3065.38	2116.63
3064.77	2047.12
3064.15	2124.12
3063.54	2152.28
3062.93	2168.22
3062.31	2070.27
3061.7	2155.36
3061.08	2126.57
3060.47	2187.22
3059.85	2064.94
3059.24	2089.02
3058.62	2088.7
3058.01	2137.13
3057.39	2205.87
3056.77	2177.1
3056.16	2217.38
3055.54	2143.95
3054.93	2326.32
3054.31	2208.24
3053.7	2090.2
3053.08	2138.58
3052.46	2308.66
3051.85	2210.95
3051.23	2178.16
3050.61	2153.5
3050	2209.94
3049.38	2246.09
3048.76	2168.72
3048.15	2176.5
3047.53	2338.26
3046.91	2301.44
3046.3	2317.29
3045.68	2300.74
3045.06	2316.58
3044.44	2320.28
3043.83	2336.12
3043.21	2351.95
3042.59	2355.64
3041.97	2432.17
3041.36	2391.34
3040.74	2322.2
3040.12	2406.79
3039.5	2224.42
3038.88	2309
3038.27	2215.65
3037.65	2300.21
3037.03	2429.2
3036.41	2432.87
3035.79	2428.46
3035.17	2351.32
3034.55	2383.28
3033.93	2516.2
3033.32	2463.31
3032.7	2333.73
3032.08	2494.86
3031.46	2559.06
3030.84	2514.27
3030.22	2469.5
3029.6	2444.91
3028.98	2432.44
3028.36	2407.87
3027.74	2451.86
3027.12	2552.28
3026.5	2447.07
3025.88	2386.24
3025.26	2406.02
3024.64	2437.89
3024.02	2586.59
3023.4	2610.36
3022.78	2521.35
3022.16	2589.43
3021.54	2548.77
3020.91	2673.18
3020.29	2471.51
3019.67	2620.04
3019.05	2591.47
3018.43	2574.98
3017.81	2618.84
3017.19	2702.9
3016.56	2654.23
3015.94	2722.18
3015.32	2689.6
3014.7	2761.54
3014.08	2576.24
3013.45	2768.73
3012.83	2704.02
3012.21	2667.45
3011.59	2835.74
3010.97	2807.19
3010.34	2674.25
3009.72	2673.84
3009.1	2773.79
3008.47	2729.21
3007.85	2764.91
3007.23	2852.76
3006.61	2715.92
3005.98	2703.47
3005.36	2783.27
3004.74	2770.81
3004.11	2786.42
3003.49	2906.26
3002.86	2861.72
3002.24	2861.28
3001.62	2884.88
3000.99	2820.34
3000.37	2799.88
2999.74	2887.56
2999.12	2803.03
2998.5	2778.58
2997.87	2930.27
2997.25	3005.86
2996.62	2877.34
2996	2868.9
2995.37	2984.48
2994.75	3040.02
2994.12	2991.56
2993.5	2883.13
2992.87	2878.69
2992.25	2930.22
2991.62	3153.6
2990.99	2977.28
2990.37	2948.85
2989.74	2948.4
2989.12	2915.99
2988.49	3011.39
2987.87	2907.1
2987.24	2942.59
2986.61	2962.1
2985.99	3041.47
2985.36	2969.17
2984.73	3140.3
2984.11	3075.98
2983.48	3171.24
2982.85	3122.89
2982.23	3146.34
2981.6	3121.94
2980.97	3057.67
2980.35	3140.91
2979.72	3200.2
2979.09	3179.79
2978.46	3011.97
2977.84	3115.07
2977.21	3106.63
2976.58	3122.08
2975.95	3229.11
2975.32	3180.84
2974.7	3192.29
2974.07	3259.45
2973.44	3251
2972.81	3306.2
2972.18	3210.22
2971.55	3277.34
2970.93	3221.16
2970.3	3240.54
2969.67	3208.24
2969.04	3271.35
2968.41	3290.72
2967.78	3421.34
2967.15	3361.22
2966.52	3364.67
2965.89	3260.89
2965.26	3347.75
2964.63	3315.47
2964	3366.57
2963.37	3393.84
2962.74	3436.98
2962.11	3424.54
2961.48	3463.69
2960.85	3459.19
2960.22	3430.89
2959.59	3513.65
2958.96	3509.14
2958.33	3504.64
2957.7	3440.67
2957.07	3559.04
2956.44	3530.76
2955.81	3546.06
2955.18	3482.13
2954.55	3449.91
2953.92	3516.7
2953.28	3603.27
2952.65	3511.66
2952.02	3618
2951.39	3684.72
2950.76	3810.78
2950.13	3592.59
2949.49	3690.93
2948.86	3591.48
2948.23	3610.7
2947.6	3669.46
2946.96	3597.73
2946.33	3522.07
2945.7	3699.38
2945.07	3742.28
2944.43	3852.33
2943.8	3685.82
2943.17	3736.6
2942.54	3767.62
2941.9	3743.34
2941.27	3766.45
2940.64	3844.82
2940	3808.71
2939.37	3776.55
2938.74	3839.1
2938.1	3818.78
2937.47	3837.92
2936.83	3872.82
2936.2	3797.3
2935.57	4001.73
2934.93	3898.62
2934.3	4032.03
2933.66	3889.54
2933.03	3908.64
2932.39	3833.18
2931.76	4037.42
2931.12	3934.4
2930.49	3890.48
2929.85	3952.87
2929.22	3924.7
2928.58	3892.61
2927.95	3880.2
2927.31	3899.28
2926.68	3969.49
2926.04	3980.68
2925.41	4046.92
2924.77	3987.31
2924.14	4096.79
2923.5	4092.22
2922.86	4036.56
2922.23	4189.2
2921.59	4078.54
2920.95	4105.41
2920.32	4281.54
2919.68	4123.78
2919.04	4091.73
2918.41	4318.82
2917.77	4212.16
2917.13	4066.28
2916.5	4140.22
2915.86	4245.52
2915.22	4166.4
2914.59	4181.45
2913.95	4196.49
2913.31	4211.53
2912.67	4163.83
2912.04	4225.91
2911.4	4354.6
2910.76	4302.98
2910.12	4286.64
2909.48	4278.14
2908.85	4359.74
2908.21	4327.74
2907.57	4417.13
2906.93	4373.38
2906.29	4611.5
2905.65	4375.94
2905.01	4563.11
2904.37	4378.5
2903.74	4342.62
2903.1	4478.85
2902.46	4501.63
2901.82	4324.96
2901.18	4551.06
2900.54	4444.81
2899.9	4389.4
2899.26	4435.62
2898.62	4388.04
2897.98	4653.03
2897.34	4589.81
2896.7	4499.27
2896.06	4525.91
2895.42	4654.06
2894.78	4485.47
2894.14	4484.78
2893.5	4667.51
2892.86	4756.53
2892.22	4693.37
2891.58	4680.94
2890.93	4668.52
2890.29	4562.51
2889.65	4604.69
2889.01	4923.64
2888.37	4751.38
2887.73	4567.48
2887.09	4839.53
2886.44	4788.13
2885.8	4818.55
2885.16	4817.81
2884.52	4696.34
2883.88	4804.64
2883.24	4881.75
2882.59	4869.32
2881.95	4849.11
2881.31	4914.5
2880.67	4828.15
2880.02	4963.55
2879.38	4826.66
2878.74	4919.24
2878.09	4926.25
2877.45	4941.04
2876.81	5157.94
2876.16	4838.46
2875.52	4791.08
2874.88	5035.1
2874.23	5073.17
2873.59	4998.59
2872.95	4885.2
2872.3	5125.17
2871.66	4910.86
2871.01	4847.99
2870.37	5118.91
2869.73	5172.44
2869.08	5047.48
2868.44	5069.98
2867.79	4972.23
2867.15	5052.89
2866.5	4970.69
2865.86	5152.12
2865.21	5279.23
2864.57	5231.91
2863.92	5293.09
2863.28	5114.06
2862.63	5248.84
2861.99	5166.69
2861.34	5235.6
2860.7	5165.09
2860.05	5400.44
2859.4	5167.36
2858.76	5321.36
2858.11	5444.36
2857.47	5327.45
2856.82	5218.31
2856.17	5376.07
2855.53	5464.18
2854.88	5413.07
2854.23	5435.42
2853.59	5519.62
2852.94	5418.28
2852.29	5359.48
2851.65	5320.01
2851	5574.13
2850.35	5411.05
2849.7	5348.43
2849.06	5363.04
2848.41	5454.86
2847.76	5465.59
2847.11	5565.08
2846.47	5529.49
2845.82	5644.37
2845.17	5419.76
2844.52	5565.48
2843.87	5784.43
2843.22	5579.18
2842.58	5562.89
2841.93	5473.37
2841.28	5688.34
2840.63	5714.43
2839.98	5574.84
2839.33	5624.06
2838.68	5634.74
2838.03	5884.17
2837.38	5679.19
2836.73	5539.72
2836.09	5673.57
2835.44	5792
2834.79	5902.69
2834.14	5797.89
2833.49	5777.76
2832.84	5761.47
2832.19	5768.27
2831.54	5744.3
2830.89	5904.87
2830.24	5976.98
2829.58	5833.86
2828.93	6025.08
2828.28	5682.21
2827.63	6050.09
2826.98	6168.21
2826.33	5860.04
2825.68	5939.76
2825.03	6038.65
2824.38	5861.15
2823.73	5933.15
2823.07	6181.64
2822.42	5977.34
2821.77	6041.63
2821.12	6059.86
2820.47	6131.78
2819.81	6073.31
2819.16	6114.54
2818.51	6159.58
2817.86	6089.64
2817.21	6207.48
2816.55	6152.87
2815.9	6259.17
2815.25	6147.13
2814.6	6073.41
2813.94	6041.84
2813.29	6224.65
2812.64	6281.09
2811.98	6238.02
2811.33	6455.15
2810.68	6239.9
2810.02	6246.58
2809.37	6341.22
2808.71	6328.76
2808.06	6385.13
2807.41	6655.56
2806.75	6463.41
2806.1	6458.58
2805.44	6423.18
2804.79	6605.56
2804.14	6700.03
2803.48	6553.86
2802.83	6598.66
2802.17	6513.63
2801.52	6417.18
2800.86	6492.52
2800.21	6628.89
2799.55	6620.23
2798.9	6596.3
2798.24	6702.08
2797.59	6735.36
2796.93	6837.27
2796.27	6599.82
2795.62	6644.53
2794.96	6654.93
2794.31	6722.49
2793.65	6626.18
2792.99	6808.02
2792.34	6784.1
2791.68	6756.38
2791.02	6766.75
2790.37	6807.58
2789.71	6696.12
2789.05	6889.19
2788.4	6781.56
2787.74	6860.41
2787.08	6699.55
2786.43	7128.34
2785.77	7028.34
2785.11	6909.36
2784.45	7022.35
2783.8	6888.2
2783.14	7054.36
2782.48	6943.05
2781.82	7109.15
2781.16	7244.81
2780.51	7239.88
2779.85	6889.35
2779.19	7313.57
2778.53	6936.55
2777.87	7037.96
2777.21	7184.89
2776.56	7142.02
2775.9	7194.03
2775.24	7014.6
2774.58	6998.33
2773.92	7107.22
2773.26	7197.12
2772.6	7412.1
2771.94	7263.1
2771.28	7227.86
2770.62	7317.68
2769.96	7142.24
2769.3	7285.09
2768.64	7318.04
2767.98	7460.81
2767.32	7524.01
2766.66	7409.26
2766	7336.18
2765.34	7361.52
2764.68	7341.45
2764.02	7306.25
2763.36	7418.6
2762.7	7644.39
2762.04	7559.99
2761.38	7415.12
2760.71	7444.21
2760.05	7594.25
2759.39	7581.72
2758.73	7739.25
2758.07	7855.17
2757.41	7408.17
2756.74	7728.07
2756.08	7704.2
2755.42	7820.05
2754.76	7784.85
2754.1	7749.66
2753.43	7672.96
2752.77	7717.04
2752.11	7764.89
2751.45	7748.58
2750.78	7622.9
2750.12	7757.47
2749.46	7899.54
2748.79	7917.15
2748.13	7731.21
2747.47	7967.44
2746.8	7939.82
2746.14	7885.82
2745.48	7922.26
2744.81	7898.42
2744.15	7893.42
2743.48	8031.5
2742.82	8037.77
2742.16	8010.17
2741.49	8114.29
2740.83	8060.34
2740.16	8104.23
2739.5	8249.67
2738.83	8169.39
2738.17	8183.15
2737.5	8095.39
2736.84	8071.56
2736.17	8171.79
2735.51	8234.4
2734.84	8255.66
2734.18	8337.02
2733.51	8452.17
2732.85	8165.39
2732.18	8306.81
2731.52	8474.48
2730.85	8345.51
2730.18	8389.24
2729.52	8309.11
2728.85	8285.3
2728.19	8355.28
2727.52	8549.04
2726.85	8513.94
2726.19	8490.1
2725.52	8361.29
2724.85	8637.4
2724.19	8474.87
2723.52	8585.97
2722.85	8494.69
2722.18	8549.56
2721.52	8484.53
2720.85	8539.38
2720.18	8526.81
2719.51	8312.06
2718.85	8700.08
2718.18	8519.06
2717.51	8641.22
2716.84	8546.32
2716.17	8638.51
2715.5	8670.82
2714.84	8845.24
2714.17	8821.41
2713.5	8778.9
2712.83	8758.83
2712.16	8914.44
2711.49	8864.46
2710.82	8904.17
2710.15	9041
2709.49	8961.14
2708.82	9153.94
2708.15	9077.82
2707.48	8882.25
2706.81	9089.9
2706.14	8995.16
2705.47	8926.58
2704.8	9122.93
2704.13	9181.19
2703.46	9142.45
2702.79	9185.77
2702.12	9135.85
2701.45	9167.97
2700.77	9237.35
2700.1	9064.45
2699.43	9148.74
2698.76	9236.73
2698.09	9164.49
2697.42	9114.63
2696.75	9347.82
2696.08	9368.7
2695.41	9315.1
2694.73	9209.41
2694.06	9408.94
2693.39	9448.4
2692.72	9405.99
2692.05	9400.79
2691.37	9257.97
2690.7	9427.58
2690.03	9664.08
2689.36	9320.52
2688.69	9408.27
2688.01	9626.07
2687.34	9620.84
2686.67	9597.03
2685.99	9588.09
2685.32	9538.3
2684.65	9663.07
2683.97	9687.54
2683.3	9604.34
2682.63	9721.61
2681.95	9608.74
2681.28	9878.11
2680.61	9657.66
2679.93	9756.3
2679.26	9639.78
2678.58	9756.94
2677.91	10003.8
2677.24	9713.08
2676.56	10082.2
2675.89	9654.43
2675.21	10071.6
2674.54	9966.32
2673.86	9879.55
2673.19	10022.4
2672.51	10165.3
2671.84	10256.3
2671.16	10169.5
2670.49	10012.4
2669.81	10059
2669.14	10068.5
2668.46	9800.51
2667.78	10043.1
2667.11	10182.1
2666.43	10232.2
2665.76	10104.9
2665.08	10144
2664.4	10142.4
2663.73	10236.9
2663.05	10205.7
2662.37	10326
2661.7	10095.4
2661.02	10448.3
2660.34	10317.4
2659.67	10223.5
2658.99	10358.5
2658.31	10404.8
2657.63	10418
2656.96	10460.6
2656.28	10558.6
2655.6	10427.8
2654.92	10470.4
2654.24	10690
2653.57	10433.9
2652.89	10461.8
2652.21	10537.5
2651.53	10539.5
2650.85	10700
2650.17	10794.1
2649.5	10715
2648.82	10628.6
2648.14	10748.5
2647.46	10669.5
2646.78	10870.2
2646.1	10824.4
2645.42	10381.1
2644.74	10935
2644.06	10815.6
2643.38	10916.8
2642.7	10760.7
2642.02	10847.2
2641.34	10889.6
2640.66	11009.2
2639.98	10779.6
2639.3	10880.8
2638.62	10989.3
2637.94	11075.7
2637.26	11007.9
2636.58	11090.6
2635.9	11165.9
2635.22	11046.7
2634.54	11320.3
2633.86	11105.6
2633.17	10865.3
2632.49	11226.8
2631.81	10916.9
2631.13	11135.3
2630.45	11217.8
2629.77	11157.4
2629.08	11126.3
2628.4	11289.5
2627.72	11243.7
2627.04	11421.5
2626.36	11405.1
2625.67	11461.9
2624.99	11555.3
2624.31	11348.4
2623.62	11591.9
2622.94	11590.1
2622.26	11763.9
2621.58	11568.1
2620.89	11449.2
2620.21	11359.6
2619.53	11650.4
2618.84	11495
2618.16	11628.4
2617.47	11853.3
2616.79	11518.8
2616.11	11820.3
2615.42	11602.8
2614.74	11896.9
2614.05	11800.1
2613.37	11896.8
2612.69	12030.1
2612	11918.6
2611.32	11993.4
2610.63	12006.1
2609.95	11788.9
2609.26	11991.4
2608.58	11781.5
2607.89	12009.5
2607.21	11887.2
2606.52	11929.1
2605.83	12080.3
2605.15	12293.5
2604.46	12182.2
2603.78	12205.8
2603.09	12254.9
2602.4	12158.2
2601.72	12272.9
2601.03	12103.4
2600.35	12046.8
2599.66	12343.5
2598.97	12370.7
2598.29	12135.8
2597.6	12374
2596.91	12295.7
2596.22	12544.7
2595.54	12488.2
2594.85	12246.2
2594.16	12426.1
2593.47	12504.1
2592.79	12494.8
2592.1	12732.7
2591.41	12396.4
2590.72	12637.9
2590.03	12657.7
2589.35	12445
2588.66	12486.6
2587.97	12626.2
2587.28	12791.2
2586.59	12713
2585.9	12638.4
2585.21	12494.8
2584.53	12736
2583.84	12766.6
2583.15	12924.2
2582.46	12784.3
2581.77	12800.4
2581.08	12747.6
2580.39	13021.1
2579.7	12921.2
2579.01	12770.5
2578.32	12757.6
2577.63	12878.8
2576.94	12807.9
2576.25	12950.8
2575.56	12829.2
2574.87	13040.8
2574.18	13085.8
2573.49	12986
2572.8	13078
2572.11	13130.2
2571.41	13251.1
2570.72	13147.7
2570.03	13293.9
2569.34	13168.9
2568.65	13181.2
2567.96	13175.5
2567.27	13090.3
2566.57	13178.6
2565.88	13335.5
2565.19	13308
2564.5	13381.8
2563.81	13119.6
2563.11	13399.2
2562.42	13249.1
2561.73	13290.3
2561.04	13508.3
2560.34	13365.4
2559.65	13677.2
2558.96	13638.9
2558.26	13579.1
2557.57	13544.5
2556.88	13506.2
2556.18	13486.1
2555.49	13606.5
2554.8	13622.3
2554.1	13663.4
2553.41	13535.1
2552.71	13907.6
2552.02	13880.2
2551.33	13780.8
2550.63	13901
2549.94	13564
2549.24	13583.4
2548.55	13664
2547.85	13561.1
2547.16	13728
2546.46	14056.8
2545.77	14133.7
2545.07	13901.3
2544.38	14136.4
2543.68	13767.5
2542.99	14002.5
2542.29	13860.1
2541.59	13861.5
2540.9	13837.7
2540.2	14069
2539.51	14156.5
2538.81	13978.3
2538.11	14004.8
2537.42	14085.2
2536.72	14126
2536.02	14098.6
2535.33	13942.1
2534.63	14409.8
2533.93	13948.4
2533.24	14294.1
2532.54	14385
2531.84	14418.6
2531.14	14473.6
2530.45	14543
2529.75	14490.5
2529.05	14187.3
2528.35	14475.1
2527.65	14412
2526.96	14262.8
2526.26	14518.4
2525.56	14634.2
2524.86	14535.2
2524.16	14597.3
2523.46	14437.5
2522.77	14789.4
2522.07	14304.2
2521.37	14423.5
2520.67	14886
2519.97	14855.1
2519.27	14942.1
2518.57	14736
2517.87	14712.2
2517.17	14763.4
2516.47	14678.9
2515.77	14755.1
2515.07	14534.9
2514.37	14918.3
2513.67	14730.2
2512.97	15031.3
2512.27	14896.8
2511.57	14958.7
2510.87	14774.4
2510.17	14907.6
2509.47	15005
2508.77	15173.8
2508.06	15068
2507.36	14901.6
2506.66	15177.3
2505.96	15349.5
2505.26	14901.6
2504.56	15351.7
2503.86	15128.4
2503.15	15154.5
2502.45	15305.2
2501.75	15228
2501.05	15428.4
2500.34	15251.6
2499.64	15035.6
2498.94	15631
2498.24	15450.6
2497.53	15643.8
2496.83	15371
2496.13	15667.2
2495.42	15540.3
2494.72	15267.7
2494.02	15762.8
2493.31	15529.3
2492.61	15832.4
2491.91	15464
2491.2	15521.9
2490.5	15821.2
2489.8	15573.7
2489.09	15656.4
2488.39	15728.5
2487.68	15715.3
2486.98	15602.8
2486.27	15788.3
2485.57	15729.1
2484.86	16102.5
2484.16	16121.2
2483.45	15774.7
2482.75	16148
2482.04	16134.8
2481.34	15788.4
2480.63	15987.9
2479.93	15896.7
2479.22	15950.9
2478.51	16054.6
2477.81	16345.9
2477.1	15900.7
2476.4	16315.9
2475.69	16214.2
2474.98	16569
2474.28	16240.9
2473.57	16418.7
2472.86	16210.9
2472.16	16148.2
2471.45	16389.6
2470.74	16500.1
2470.04	16327.8
2469.33	16558.4
2468.62	16552.3
2467.91	16231.6
2467.21	16409.2
2466.5	16590.2
2465.79	16555.8
2465.08	16563.7
2464.37	16405.7
2463.67	16689
2462.96	16633.4
2462.25	16577.8
2461.54	16726.9
2460.83	16879.4
2460.12	16541.7
2459.41	16778.8
2458.7	16599.8
2458	16907.4
2457.29	16975.2
2456.58	17007.7
2455.87	16948.6
2455.16	17048.1
2454.45	16612.1
2453.74	16859.4
2453.03	16726.5
2452.32	16871.7
2451.61	16844.3
2450.9	17390.7
2450.19	17053.6
2449.48	17321.8
2448.77	17164.2
2448.05	17091.1
2447.34	16912.5
2446.63	17212.2
2445.92	17290.3
2445.21	17428.1
2444.5	17228.5
2443.79	17331.2
2443.08	17606
2442.36	17424
2441.65	17329.9
2440.94	17376.3
2440.23	17039.9
2439.52	16928.4
2438.8	17304.7
2438.09	17558.1
2437.38	16807.9
2436.67	17545.5
2435.95	17462
2435.24	17420.6
2434.53	17491.5
2433.82	17678
2433.1	17647.1
2432.39	17731.9
2431.68	17588.9
2430.96	17459.9
2430.25	17621.8
2429.54	17314.2
2428.82	17861.3
2428.11	17375.2
2427.39	17806.5
2426.68	17754.7
2425.97	17944.3
2425.25	17570.5
2424.54	18082
2423.82	17862.2
2423.11	17915.3
2422.39	17692.1
2421.68	18017.9
2420.96	18029
2420.25	18008.6
2419.53	17897.4
2418.82	17828.1
2418.1	18041.9
2417.38	17976.1
2416.67	18315.5
2415.95	18012.2
2415.24	18159.5
2414.52	18118.2
2413.8	18076.9
2413.09	18464.8
2412.37	17882.6
2411.66	18127.5
2410.94	17901.3
2410.22	18404.1
2409.5	18174.5
2408.79	18454
2408.07	18405.7
2407.35	18472.5
2406.64	18305.7
2405.92	18191.3
2405.2	18261.5
2404.48	18415.3
2403.76	18384.5
2403.05	18482.5
2402.33	18570
2401.61	18629.7
2400.89	18835.5
2400.17	18515.8
2399.46	18505.9
2398.74	18826.4
2398.02	18663.4
2397.3	18597.8
2396.58	18772.2
2395.86	18484.1
2395.14	18905.1
2394.42	19068.9
2393.7	18586.3
2392.98	18913.4
2392.26	18893
2391.54	18473.2
2390.82	19008.4
2390.1	18772.7
2389.38	18849.6
2388.66	18697.3
2387.94	19187.1
2387.22	18982.7
2386.5	19062.9
2385.78	19157
2385.06	19296.1
2384.34	19078
2383.62	19078.4
2382.9	18860.4
2382.18	19072.2
2381.45	19038
2380.73	19474.9
2380.01	19215.4
2379.29	19440.9
2378.57	19063.8
2377.84	19161.1
2377.12	19476.5
2376.4	19379.9
2375.68	19158.8
2374.96	19474
2374.23	19291
2373.51	19284.4
2372.79	19692.9
2372.06	19285.1
2371.34	19562.1
2370.62	19614.2
2369.89	19863.4
2369.17	19601
2368.45	19435.4
2367.72	20005.8
2367	19601.9
2366.28	19705.8
2365.55	19826.9
2364.83	19868.6
2364.1	19924
2363.38	20045.1
2362.66	19731.3
2361.93	19666
2361.21	20194.1
2360.48	19849.3
2359.76	19797.9
2359.03	19911.9
2358.31	19936.3
2357.58	20291.5
2356.86	19688.6
2356.13	19995.5
2355.4	20185.2
2354.68	20223.3
2353.95	19989.3
2353.23	20296
2352.5	20075.8
2351.77	20155.2
2351.05	20337.8
2350.32	20437.7
2349.59	20248.6
2348.87	20327.9
2348.14	20224.9
2347.41	20493.3
2346.69	20462.5
2345.96	20314.8
2345.23	20356.2
2344.5	20456
2343.78	20339.3
2343.05	20415
2342.32	20532
2341.59	20405
2340.87	20388
2340.14	20542.6
2339.41	20429.4
2338.68	20628.6
2337.95	20721.4
2337.22	20519
2336.5	20975.4
2335.77	20656.5
2335.04	20879.5
2334.31	20855.5
2333.58	20656.7
2332.85	20979
2332.12	20708.3
2331.39	20636.4
2330.66	20646.8
2329.93	20766.8
2329.2	21102.5
2328.47	21064.8
2327.74	21082
2327.01	20571.9
2326.28	21195
2325.55	21232.6
2324.82	20640.6
2324.09	21215.5
2323.36	21259.9
2322.63	21030.8
2321.9	20846.1
2321.17	21413.7
2320.43	20907.7
2319.7	21283.7
2318.97	21222.2
2318.24	21150.4
2317.51	21246.1
2316.78	21218.7
2316.04	21310.9
2315.31	21280.1
2314.58	21385.9
2313.85	21450.7
2313.11	21546.3
2312.38	21474.5
2311.65	21355
2310.92	21484.6
2310.18	21607.3
2309.45	21494.7
2308.72	21508.3
2307.98	21692.3
2307.25	21545.6
2306.52	21889.7
2305.78	21392.1
2305.05	21763.4
2304.32	21565.7
2303.58	21793.8
2302.85	21803.9
2302.11	21987.6
2301.38	21994.3
2300.64	22028.1
2299.91	21878.2
2299.17	21537.8
2298.44	21925.6
2297.7	21768.9
2296.97	21843.6
2296.23	21928.5
2295.5	21880.7
2294.76	21904.4
2294.03	21788.7
2293.29	22016.2
2292.56	21683.1
2291.82	22005.7
2291.08	22216.1
2290.35	22243
2289.61	22270
2288.88	22052.5
2288.14	22313.7
2287.4	21977.5
2286.67	22035
2285.93	22187.5
2285.19	22180.5
2284.45	22200.6
2283.72	22498.8
2282.98	22529
2282.24	22505
2281.5	22491.2
2280.77	22545.2
2280.03	22328.1
2279.29	22371.9
2278.55	22588.4
2277.81	22188.5
2277.08	22679.2
2276.34	22574
2275.6	22536.5
2274.86	22691.9
2274.12	22312.6
2273.38	22610.1
2272.64	22555.7
2271.9	22193.5
2271.17	22825.6
2270.43	22477
2269.69	22568
2268.95	22490
2268.21	22773.6
2267.47	22560.4
2266.73	23056.7
2265.99	22796.3
2265.25	22924.3
2264.51	22609.9
2263.77	23092.4
2263.03	22926.6
2262.28	23408.9
2261.54	22831.4
2260.8	22979.5
2260.06	23147.8
2259.32	23063.1
2258.58	23130.2
2257.84	22829.7
2257.1	23146.2
2256.35	22859.3
2255.61	23216.2
2254.87	23094.5
2254.13	23033.5
2253.39	23417.1
2252.64	23164.1
2251.9	23133.4
2251.16	23055.5
2250.42	23267.2
2249.67	23192.7
2248.93	23205.8
2248.19	23114.5
2247.44	23218.4
2246.7	23396.3
2245.96	23355.5
2245.21	23429
2244.47	23559.6
2243.73	23424.7
2242.98	23545.2
2242.24	23192
2241.49	23876.9
2240.75	23480
2240.01	23593.7
2239.26	23516
2238.52	23841.2
2237.77	23884.3
2237.03	23655.5
2236.28	23940.3
2235.54	23486.8
2234.79	23586.9
2234.05	23848.1
2233.3	23978.3
2232.56	23877.2
2231.81	23712.4
2231.06	23876.1
2230.32	24247.6
2229.57	23915.2
2228.83	23931.4
2228.08	24125.2
2227.33	24014.1
2226.59	23923.1
2225.84	23942.6
2225.09	24086
2224.35	23857.8
2223.6	23957.7
2222.85	24268.3
2222.1	24030.1
2221.36	23889.1
2220.61	24346.7
2219.86	24463.1
2219.11	24342.1
2218.37	24204.4
2217.62	24414.4
2216.87	24403.7
2216.12	24229.3
2215.37	24345.6
2214.62	24281.5
2213.88	24718.4
2213.13	24597.5
2212.38	24376.5
2211.63	24642.8
2210.88	24678.9
2210.13	24584.7
2209.38	24303.8
2208.63	24540
2207.88	24829.5
2207.13	24582
2206.38	24484.7
2205.63	24890.7
2204.88	25083.2
2204.13	24459.3
2203.38	25015.1
2202.63	24944.4
2201.88	25256.7
2201.13	24793
2200.38	24858.9
2199.63	24621.8
2198.88	24717.6
2198.13	24949.9
2197.38	24915.8
2196.62	24998.3
2195.87	25133.9
2195.12	25199.6
2194.37	25022.6
2193.62	25274.5
2192.86	25336.8
2192.11	25296.1
2191.36	25391.7
2190.61	25483.9
2189.86	25350.2
2189.1	25179.9
2188.35	25292.1
2187.6	25693
2186.84	25253.9
2186.09	25631.5
2185.34	25434.8
2184.58	25599.9
2183.83	25472.9
2183.08	25697.6
2182.32	25534.2
2181.57	25480.3
2180.81	25542.5
2180.06	25982.5
2179.31	25554
2178.55	25427.2
2177.8	25678.1
2177.04	25488.4
2176.29	25573.7
2175.53	25976.8
2174.78	25810.3
2174.02	25925.3
2173.27	25937.6
2172.51	25840.7
2171.76	26226.9
2171	25802.4
2170.25	25844.5
2169.49	25747.7
2168.73	26279.2
2167.98	25970.7
2167.22	25920.1
2166.46	26018.4
2165.71	25819.1
2164.95	25828.1
2164.19	26002.3
2163.44	26156.5
2162.68	25683.3
2161.92	26187.6
2161.17	26110.7
2160.41	26495.9
2159.65	26263.8
2158.89	26460.8
2158.14	26331.1
2157.38	26260.8
2156.62	25880.5
2155.86	26252.2
2155.1	26369.9
2154.35	26322.7
2153.59	26407.4
2152.83	26356.9
2152.07	26464.6
2151.31	26522.8
2150.55	26571.2
2149.79	26807.2
2149.03	26397.8
2148.27	26383.6
2147.51	26754.6
2146.76	26773.2
2146	26870.8
2145.24	26728.2
2144.48	26628.4
2143.72	26883.9
2142.96	26889.3
2142.19	26796.2
2141.43	26647.1
2140.67	27027.3
2139.91	26572.6
2139.15	26850.8
2138.39	26419.4
2137.63	26802.6
2136.87	26781.8
2136.11	26961.3
2135.35	26704
2134.58	26959
2133.82	26695.3
2133.06	26989.5
2132.3	26663.5
2131.54	26800.2
2130.77	27212.3
2130.01	27129.2
2129.25	27409.9
2128.49	27133.4
2127.72	27420.6
2126.96	27009.7
2126.2	27005.3
2125.43	27187.6
2124.67	27346.9
2123.91	27319.5
2123.14	27779.9
2122.38	27719.7
2121.62	27338.7
2120.85	27533.9
2120.09	27139.9
2119.33	27155.1
2118.56	27467.9
2117.8	27355.5
2117.03	27498.2
2116.27	27026.1
2115.5	27583.9
2114.74	27938.9
2113.97	27447.4
2113.21	27665
2112.44	27484.1
2111.68	27652.7
2110.91	27380.3
2110.15	27522.8
2109.38	27629.2
2108.61	27765
2107.85	28057.5
2107.08	28114.8
2106.32	27385.9
2105.55	28004.5
2104.78	27800.9
2104.02	27669.1
2103.25	27720
2102.48	27751.3
2101.72	28167.2
2100.95	27732.4
2100.18	28346.9
2099.41	27840.5
2098.65	27894.6
2097.88	28095.1
2097.11	28207.7
2096.34	28131.5
2095.57	28250.5
2094.81	28288.2
2094.04	28495
2093.27	28571.7
2092.5	28118
2091.73	28627.3
2090.96	28947.7
2090.2	29099
2089.43	28356.3
2088.66	28211.9
2087.89	28567.9
2087.12	28592.5
2086.35	28763.2
2085.58	28242
2084.81	28386.7
2084.04	28589.9
2083.27	28442.3
2082.5	28963.4
2081.73	28630.9
2080.96	28457.4
2080.19	28689.6
2079.42	28626.4
2078.65	28738.5
2077.87	28821.3
2077.1	28861.9
2076.33	28967.4
2075.56	29173.3
2074.79	28701.8
2074.02	29102.1
2073.25	28996.8
2072.47	29341.9
2071.7	28838.3
2070.93	29205.9
2070.16	29194.6
2069.39	29053.8
2068.61	29110.5
2067.84	29134.8
2067.07	29023.3
2066.3	29070.2
2065.52	29062.2
2064.75	29135
2063.98	28845.7
2063.2	29529.4
2062.43	29097.9
2061.66	28850.8
2060.88	29450.2
2060.11	29322.6
2059.33	29182.1
2058.56	29535.7
2057.79	29747.1
2057.01	29593.7
2056.24	29814.8
2055.46	29587.2
2054.69	29262.8
2053.91	29829
2053.14	29682.2
2052.36	29499.9
2051.59	29366
2050.81	29735.2
2050.04	29640
2049.26	29512.6
2048.48	29556.1
2047.71	29870.1
2046.93	29916.7
2046.16	29911.8
2045.38	29710.4
2044.6	29992
2043.83	29768.2
2043.05	30201
2042.27	29616.7
2041.5	29872.4
2040.72	30141
2039.94	30013.7
2039.16	29995.9
2038.39	29910.6
2037.61	29886.3
2036.83	30206
2036.05	30088.5
2035.28	30215.3
2034.5	30332.4
2033.72	30182.8
2032.94	29988.3
2032.16	30057.2
2031.38	30164.6
2030.6	30252.7
2029.83	30437.1
2029.05	30396.7
2028.27	30465.5
2027.49	30636.9
2026.71	30208.4
2025.93	30520.9
2025.15	30432.5
2024.37	30590.9
2023.59	30598.7
2022.81	30427
2022.03	30271.3
2021.25	30532.2
2020.47	31042.9
2019.69	30771.9
2018.91	30520.2
2018.13	30620.8
2017.35	30811
2016.56	30972.3
2015.78	30573.6
2015	31048.5
2014.22	30669
2013.44	31118.1
2012.66	31058.6
2011.88	30711.3
2011.09	30527.2
2010.31	31343.6
2009.53	30980.5
2008.75	30949.8
2007.96	31142.7
2007.18	31306.8
2006.4	31007.8
2005.62	31028.2
2004.83	31035.8
2004.05	31748.9
2003.27	31360.6
2002.48	31802.2
2001.7	31296
2000.92	31686.4
2000.13	31199.5
1999.35	31596.1
1998.56	32107.4
1997.78	31512.3
1997	31895.9
1996.21	31278.8
1995.43	31550.8
1994.64	31507.3
1993.86	32142.3
1993.07	31656.1
1992.29	31698.6
1991.5	32132.7
1990.72	32057.3
1989.93	31892.8
1989.14	31725.2
1988.36	32181.3
1987.57	32268.2
1986.79	31954.3
1986	32060.3
1985.21	31966
1984.43	32218.1
1983.64	31942.6
1982.85	32417.2
1982.07	32183
1981.28	32409.6
1980.49	32137.4
1979.71	32621.1
1978.92	31977.4
1978.13	31997.5
1977.34	32296.9
1976.56	32272.5
1975.77	32298.9
1974.98	32693.2
1974.19	32237.4
1973.4	32358.9
1972.62	32667.4
1971.83	32662
1971.04	32428.3
1970.25	32663.8
1969.46	32503.1
1968.67	32459.6
1967.88	33018.1
1967.09	32683.2
1966.3	32772.8
1965.51	32602.7
1964.72	32847.3
1963.93	33031.8
1963.14	32776.3
1962.35	32802.5
1961.56	32755.9
1960.77	33234.4
1959.98	33023.3
1959.19	32768
1958.4	32977.5
1957.61	33032
1956.82	33298.3
1956.03	33397.1
1955.24	33113.5
1954.45	33108
1953.65	33459.3
1952.86	33381.1
1952.07	33451.3
1951.28	33259.5
1950.49	33291.8
1949.69	33494.6
1948.9	33015.7
1948.11	33505.5
1947.32	33544.1
1946.52	33301.9
1945.73	33621.2
1944.94	33590.3
1944.15	33528
1943.35	33607.5
1942.56	33630.2
1941.77	33218.2
1940.97	33650.5
1940.18	33594.5
1939.38	33916.4
1938.59	33765.9
1937.8	34040.4
1937	33685.4
1936.21	34107.8
1935.41	34117.8
1934.62	33715.7
1933.82	33458.5
1933.03	33751.7
1932.23	33642.3
1931.44	33507.8
1930.64	34162.2
1929.85	34536.8
1929.05	33968.6
1928.25	34032
1927.46	33404.4
1926.66	33596.7
1925.87	33836
1925.07	34332.6
1924.27	33944
1923.48	34139.2
1922.68	34271.5
1921.88	33685.4
1921.09	33889.9
1920.29	34182.2
1919.49	34189
1918.69	34362
1917.9	34331.2
1917.1	34701.6
1916.3	34517.2
1915.5	34398.6
1914.71	34421
1913.91	34678.4
1913.11	35126.7
1912.31	34513.4
1911.51	34564
1910.71	34993.2
1909.91	34461.6
1909.12	34840.7
1908.32	34691
1907.52	35095
1906.72	34204
1905.92	34958.1
1905.12	34373.9
1904.32	34874.6
1903.52	34931.2
1902.72	34812.9
1901.92	34869.6
1901.12	34632.6
1900.32	35238.9
1899.52	34702.2
1898.72	35086.6
1897.92	34955.9
1897.11	34828.3
1896.31	34975.4
1895.51	35053.8
1894.71	34895.1
1893.91	35272.8
1893.11	35354.3
1892.31	35039.7
1891.5	35155.4
1890.7	35489.2
1889.9	34931.7
1889.1	35443.1
1888.3	35234.6
1887.49	35425
1886.69	35064
1885.89	35304.1
1885.08	35357.4
1884.28	35824.6
1883.48	35519.8
1882.67	35588.5
1881.87	35607.5
1881.07	35613.9
1880.26	35293.8
1879.46	35757.5
1878.65	35944.2
1877.85	36162
1877.05	36059.6
1876.24	36243.1
1875.44	35783.4
1874.63	35883.1
1873.83	36346
1873.02	35930
1872.22	36160
1871.41	36234.6
1870.61	36095.1
1869.8	36247.3
1869	36114
1868.19	35952.8
1867.38	36058.5
1866.58	36486.6
1865.77	36127
1864.96	36248
1864.16	36747.2
1863.35	36434.2
1862.54	36434.3
1861.74	36580
1860.93	36474.7
1860.12	36403.6
1859.32	36564.7
1858.51	36766
1857.7	36722.7
1856.89	36707.2
1856.09	36781.5
1855.28	36896
1854.47	36704.2
1853.66	36787.7
1852.85	36892.9
1852.04	36744.4
1851.24	36469.3
1850.43	37201.9
1849.62	37038
1848.81	36889.7
1848	36775.4
1847.19	36793.9
1846.38	37396.1
1845.57	37155.2
1844.76	37457.6
1843.95	37253.8
1843.14	37096.3
1842.33	36963.6
1841.52	37330.6
1840.71	37157.8
1839.9	37500.1
1839.09	37287.2
1838.28	37632.4
1837.47	37570.5
1836.66	37108.1
1835.84	37631.9
1835.03	37148
1834.22	37591.5
1833.41	37649.8
1832.6	37671.2
1831.79	37591
1830.97	37630.8
1830.16	37446
1829.35	37750.5
1828.54	37965.7
1827.72	37771.6
1826.91	37657.6
1826.1	37620.5
1825.29	37601.9
1824.47	37650.9
1823.66	38010.4
1822.85	37318.6
1822.03	37976.1
1821.22	37714.7
1820.4	38279.7
1819.59	37999.9
1818.78	37505.2
1817.96	37974.8
1817.15	38032.9
1816.33	37989.6
1815.52	37676.4
1814.7	38292.8
1813.89	38133
1813.07	38332.1
1812.26	38635.3
1811.44	38156.7
1810.63	38095.1
1809.81	38419.7
1809	38738
1808.18	38379.1
1807.36	38072.4
1806.55	38084.4
1805.73	38604.7
1804.91	38586
1804.1	38236.6
1803.28	38325
1802.46	38590.9
1801.65	38722.1
1800.83	38700.3
1800.01	38693.8
1799.19	38699.5
1798.38	38341.3
1797.56	38591.6
1796.74	38689.1
1795.92	38376.9
1795.11	38779.9
1794.29	38501.4
1793.47	38827.9
1792.65	39108.4
1791.83	39062.2
1791.01	39037.2
1790.19	38975.7
1789.37	38758.5
1788.56	39231.1
1787.74	38913.3
1786.92	39245.3
1786.1	38967.2
1785.28	39341.8
1784.46	39356.5
1783.64	39447.4
1782.82	39346.3
1782	39653.5
1781.18	39241.6
1780.36	39128.3
1779.53	39402
1778.71	39620.7
1777.89	40000.7
1777.07	39500.7
1776.25	39947.6
1775.43	39350.4
1774.61	39638.9
1773.79	39498.4
1772.96	39948
1772.14	40494.7
1771.32	39970.9
1770.5	39389.6
1769.67	39753.8
1768.85	40357.9
1768.03	39871
1767.21	39928.1
1766.38	40319.2
1765.56	40203.1
1764.74	39734.7
1763.91	39776.6
1763.09	40377
1762.27	40021.1
1761.44	40472.6
1760.62	40317
1759.79	40079.7
1758.97	40358
1758.15	40060
1757.32	40802.2
1756.5	40373.9
1755.67	40124.6
1754.85	40360.2
1754.02	40692.8
1753.2	40510.2
1752.37	40161
1751.55	40941.6
1750.72	40713.7
1749.89	40694.7
1749.07	40527.3
1748.24	41016.8
1747.42	40404.7
1746.59	40464.4
1745.76	40572.5
1744.94	40468.8
1744.11	40752.3
1743.28	40808.9
1742.46	41134.5
1741.63	41000.6
1740.8	40954.3
1739.97	41180
1739.15	40937.4
1738.32	41305
1737.49	40893.4
1736.66	40666
1735.83	40843.3
1735.01	40712.6
1734.18	40895.8
1733.35	41347.5
1732.52	41440
1731.69	40983.6
1730.86	41507.4
1730.03	41352.6
1729.2	41610.9
1728.37	40793
1727.55	42100.1
1726.72	41318.6
1725.89	41281.4
1725.06	41388.9
1724.23	41520.4
1723.4	41871.7
1722.56	41373.8
1721.73	41851.4
1720.9	41486.2
1720.07	41358.8
1719.24	41667.7
1718.41	41404.9
1717.58	41590.4
1716.75	41796.8
1715.92	42039.2
1715.08	41981
1714.25	41895.7
1713.42	42044.9
1712.59	42127.9
1711.76	41649.1
1710.92	41834.3
1710.09	42133.4
1709.26	41862.1
1708.43	42089.1
1707.59	41811.8
1706.76	42128.8
1705.93	41842.6
1705.09	41358.6
1704.26	42452.3
1703.43	42511
1702.59	42264
1701.76	41906
1700.92	41806
1700.09	42500.1
1699.26	42151.3
1698.42	42476.7
1697.59	42095.1
1696.75	42695.9
1695.92	42290.4
1695.08	42277.2
1694.25	42554.3
1693.41	42595
1692.58	42351.4
1691.74	42951.5
1690.9	42779.7
1690.07	42697.6
1689.23	42696.3
1688.4	42874.4
1687.56	43479.9
1686.72	42641.7
1685.89	42634.4
1685.05	43436.8
1684.21	43139.7
1683.38	43201
1682.54	43041.4
1681.7	43049
1680.86	43158.1
1680.03	43168.6
1679.19	42940.5
1678.35	42852.6
1677.51	43194.3
1676.67	43595.6
1675.84	43391.3
1675	43831.2
1674.16	43471.9
1673.32	43393
1672.48	43370.7
1671.64	43619.6
1670.8	43487
1669.96	43771.5
1669.12	43725.3
1668.28	43777.4
1667.44	43725.3
1666.6	44024.4
1665.76	44002
1664.92	44030.3
1664.08	43993
1663.24	43917.1
1662.4	43740.1
1661.56	44371.9
1660.72	43838.2
1659.88	44240.9
1659.04	44197.7
1658.2	44041.6
1657.36	44396.5
1656.51	44484
1655.67	44390.3
1654.83	44353
1653.99	44508.7
1653.15	44314.1
1652.3	44502.4
1651.46	44138.8
1650.62	44220.2
1649.78	44097
1648.93	44309
1648.09	44369.6
1647.25	44412.4
1646.4	44843.6
1645.56	44622.5
1644.72	44816.4
1643.87	44281.4
1643.03	44869.2
1642.18	45305.8
1641.34	44729.5
1640.5	44342.9
1639.65	44773.5
1638.81	45014.4
1637.96	44752.3
1637.12	44954.7
1636.27	45018
1635.43	45439.2
1634.58	45038.1
1633.73	45042.2
1632.89	44883.8
1632.04	44899.8
1631.2	44939.4
1630.35	45227.2
1629.5	44938.8
1628.66	45081.7
1627.81	45425.5
1626.97	44918.7
1626.12	44961.2
1625.27	45399.2
1624.42	45043.2
1623.58	45082.7
1622.73	45272.7
1621.88	45176.5
1621.03	45354.5
1620.19	45279
1619.34	45309.5
1618.49	45611.3
1617.64	45146.7
1616.79	45342.3
1615.94	45823.6
1615.1	45161.8
1614.25	45410.3
1613.4	45517.4
1612.55	45277
1611.7	45007.3
1610.85	45655.9
1610	46171.8
1609.15	45563.8
1608.3	45323.6
1607.45	45795.2
1606.6	45996.1
1605.75	45564.9
1604.9	46133.3
1604.05	45719.8
1603.2	45682.6
1602.35	45848.1
1601.5	45605.2
1600.65	45897
1599.79	45839.2
1598.94	45863.7
1598.09	45732.5
1597.24	46118
1596.39	45875.3
1595.54	46213.7
1594.68	46258.5
1593.83	46001.3
1592.98	45964.1
1592.13	45997.3
1591.27	46097.8
1590.42	46133.9
1589.57	46131.9
1588.71	46446.3
1587.86	46157.1
1587.01	46544.6
1586.15	46548.3
1585.3	46519.8
1584.45	46304
1583.59	46603.4
1582.74	46329.1
1581.88	46613.7
1581.03	46523.8
1580.17	46372.5
1579.32	46803.2
1578.46	46926.8
1577.61	46544.5
1576.75	46934.1
1575.9	47256.2
1575.04	46783.5
1574.19	47172.8
1573.33	47378
1572.47	47250.1
1571.62	47081.4
1570.76	47575.5
1569.91	47386.3
1569.05	47299.4
1568.19	47688.1
1567.33	47461.1
1566.48	47240
1565.62	47686.9
1564.76	47757.4
1563.91	47638.4
1563.05	47356.2
1562.19	47933.9
1561.33	47578.9
1560.47	47911.6
1559.62	47874.2
1558.76	48186.4
1557.9	48090.7
1557.04	48050.5
1556.18	48304.2
1555.32	48135.8
1554.46	48008.2
1553.6	48331.7
1552.74	48797.5
1551.89	48739.7
1551.03	49167.5
1550.17	48970
1549.31	48804.6
1548.45	48674.2
1547.59	49061
1546.72	48994.5
1545.86	48788.5
1545	48739.5
1544.14	48838.5
1543.28	48737.2
1542.42	48670.8
1541.56	48758.2
1540.7	48723.7
1539.84	48695
1538.97	48480.6
1538.11	48849.3
1537.25	48733.6
1536.39	48597.7
1535.53	48719.8
1534.66	48795.4
1533.8	48230.6
1532.94	48596.1
1532.07	48637
1531.21	48735.8
1530.35	48944.6
1529.48	48985.4
1528.62	48971.1
1527.76	48687.7
1526.89	48621.5
1526.03	48439.5
1525.17	48737.8
1524.3	48986.8
1523.44	48859.8
1522.57	49334.3
1521.71	48545.2
1520.84	48386.5
1519.98	48774.1
1519.11	48797.5
1518.25	49031.8
1517.38	48893.3
1516.52	48902.2
1515.65	49269.2
1514.78	49075.9
1513.92	49131
1513.05	49041.7
1512.18	48842.8
1511.32	49218.1
1510.45	49097.1
1509.58	48984.8
1508.72	49008
1507.85	48621.9
1506.98	49103.6
1506.12	49412.1
1505.25	48689
1504.38	49625.5
1503.51	49562.2
1502.64	49222.5
1501.78	49343.6
1500.91	49205.5
1500.04	49317.9
1499.17	49254.7
1498.3	49905.2
1497.43	49703.8
1496.56	49686.6
1495.69	49683.8
1494.83	49453.8
1493.96	49502.7
1493.09	49226.8
1492.22	49658.1
1491.35	49402.4
1490.48	49413.9
1489.61	49511.7
1488.74	49635.3
1487.86	49184.5
1486.99	49437.2
1486.12	49405.7
1485.25	49641.1
1484.38	49517.8
1483.51	50045.7
1482.64	49715.8
1481.77	50220.6
1480.89	50123
1480.02	50226.2
1479.15	49644.2
1478.28	49959.5
1477.41	50114.2
1476.53	50251.6
1475.66	49592.7
1474.79	50194.1
1473.91	50334.4
1473.04	49979.2
1472.17	49864.7
1471.29	50185.2
1470.42	50213.7
1469.55	50270.8
1468.67	50081.9
1467.8	50596.7
1466.93	50430.6
1466.05	50782.2
1465.18	50733.3
1464.3	50598.8
1463.43	51218.7
1462.55	50632.7
1461.68	50898.2
1460.8	51146.4
1459.93	50677.8
1459.05	50671.9
1458.17	50820.1
1457.3	51014
1456.42	50657
1455.55	50870.8
1454.67	51147.2
1453.79	50653.5
1452.92	51275
1452.04	51080.7
1451.16	50826.7
1450.29	51080.1
1449.41	50834.8
1448.53	50928.5
1447.65	51384.1
1446.78	50628.9
1445.9	51138.4
1445.02	51551
1444.14	51499.3
1443.26	51037.8
1442.39	51219.7
1441.51	51634.7
1440.63	51312.8
1439.75	51696.5
1438.87	51286.5
1437.99	51323.1
1437.11	51410.9
1436.23	51816.9
1435.35	51344.7
1434.47	51199.4
1433.59	51701.9
1432.71	51968.5
1431.83	51604.5
1430.95	51933.4
1430.07	51370.8
1429.19	51461.2
1428.31	51625.4
1427.43	51698.7
1426.55	51562.1
1425.67	51646.8
1424.78	51737
1423.9	51183.6
1423.02	51653.9
1422.14	51605.2
1421.26	51545.3
1420.37	51428.6
1419.49	51354.5
1418.61	51600.5
1417.73	51393.3
1416.84	51738.4
1415.96	51352.8
1415.08	51689.2
1414.19	51550.1
1413.31	51798.6
1412.43	51758.5
1411.54	51749.5
1410.66	51717.9
1409.77	51406.3
1408.89	51575.5
1408.01	51843.6
1407.12	51978.7
1406.24	51938.6
1405.35	51777
1404.47	51734.1
1403.58	51860.6
1402.7	51942
1401.81	52139
1400.92	52197.7
1400.04	52120.9
1399.15	52521
1398.27	52444.1
1397.38	51752.4
1396.49	52087.5
1395.61	52092.5
1394.72	52046.8
1393.83	52401.4
1392.95	51682
1392.06	52242.2
1391.17	52252.9
1390.28	52080.4
1389.4	52133.3
1388.51	52476.2
1387.62	52976.6
1386.73	52821
1385.84	52156.1
1384.96	52600
1384.07	52346.1
1383.18	52854.6
1382.29	52825.7
1381.4	53111.7
1380.51	52900.1
1379.62	52761.5
1378.73	52833.9
1377.84	52897.7
1376.95	53461.6
1376.06	52724.8
1375.17	52895.3
1374.28	52815.9
1373.39	53404.7
1372.5	53162.4
1371.61	53383.3
1370.72	53256.1
1369.83	53185.1
1368.94	53585.4
1368.05	53494.7
1367.15	53589.1
1366.26	53078
1365.37	54111.5
1364.48	53272.4
1363.59	53848.8
1362.69	54066.3
1361.8	54493.9
1360.91	54198.7
1360.02	54312.5
1359.12	54443
1358.23	54397.1
1357.34	54639.5
1356.44	54338.9
1355.55	54600.8
1354.66	54650
1353.76	54304.9
1352.87	54541.5
1351.97	55010
1351.08	54628.7
1350.19	54328.5
1349.29	54377.7
1348.4	53848.5
1347.5	54115.7
1346.61	54092.2
1345.71	54158.2
1344.82	54179.4
1343.92	54164.4
1343.02	54353.1
1342.13	54352
1341.23	54297.8
1340.34	54374.8
1339.44	54136.6
1338.54	54316.8
1337.65	54262.7
1336.75	54030.2
1335.85	54606
1334.95	54579.7
1334.06	53971.2
1333.16	54112.2
1332.26	54019.2
1331.36	53820.4
1330.47	54056
1329.57	53873.9
1328.67	54273.6
1327.77	54292
1326.87	54051.6
1325.97	54064.4
1325.08	53949.2
1324.18	53945.3
1323.28	54074.9
1322.38	54374
1321.48	53950.4
1320.58	54174.4
1319.68	53903.7
1318.78	54302.6
1317.88	54443.1
1316.98	53983.7
1316.08	54210.2
1315.18	54234.1
1314.28	54121.9
1313.38	54020.8
1312.47	53930.9
1311.57	53508.2
1310.67	53790
1309.77	53678
1308.87	53912.6
1307.97	54130.4
1307.06	53829.9
1306.16	54632.4
1305.26	54523.1
1304.36	54261.5
1303.45	54124.6
1302.55	53921.2
1301.65	54526.4
1300.75	54503
1299.84	54230.5
1298.94	54367.7
1298.04	54333.3
1297.13	54534
1296.23	54568.7
1295.32	54484.4
1294.42	54781.8
1293.51	54686.5
1292.61	55232.4
1291.71	54835.8
1290.8	54975.4
1289.9	55407.7
1288.99	54735.2
1288.08	54728.3
1287.18	54776.7
1286.27	54466.2
1285.37	54746.5
1284.46	54165.7
1283.56	54479
1282.65	54425.3
1281.74	54415.7
1280.84	54643.3
1279.93	54749.5
1279.02	54400.8
1278.12	54821.2
1277.21	55001.7
1276.3	54509.9
1275.39	54343.4
1274.49	54735.9
1273.58	54602.4
1272.67	54821.3
1271.76	54825.4
1270.85	54598.4
1269.94	55128.1
1269.04	54725
1268.13	54918.9
1267.22	55332.8
1266.31	54638.4
1265.4	54796.5
1264.49	54666
1263.58	54906.4
1262.67	55182.6
1261.76	55205.8
1260.85	55171.4
1259.94	54917.3
1259.03	54418.9
1258.12	55043.5
1257.21	55096.9
1256.3	55048.8
1255.39	55151.6
1254.47	55163.9
1253.56	55055.4
1252.65	55023.8
1251.74	55093.6
1250.83	54798.8
1249.91	55326.4
1249	55451
1248.09	55296
1247.18	55231.5
1246.27	55501.1
1245.35	55724.2
1244.44	55136.6
1243.53	55652.5
1242.61	55393.7
1241.7	55145.8
1240.79	55645
1239.87	55052.5
1238.96	55546.1
1238.04	55716.8
1237.13	55302.4
1236.21	55667.1
1235.3	56056.4
1234.38	55560.1
1233.47	55749.7
1232.55	55521.4
1231.64	55336.8
1230.72	55624.7
1229.81	55210.8
1228.89	55531.4
1227.98	55786.4
1227.06	55855.7
1226.14	55987.7
1225.23	55497.7
1224.31	55738.9
1223.39	55682.7
1222.48	55626.5
1221.56	55663
1220.64	55694.1
1219.73	55673.4
1218.81	55402
1217.89	55686.5
1216.97	55687.5
1216.05	55449
1215.14	55673.3
1214.22	55856.8
1213.3	55196.4
1212.38	55121.4
1211.46	55449
1210.54	55899
1209.62	55176.5
1208.7	55838.5
1207.78	55948.2
1206.87	55470.8
1205.95	55509.9
1205.03	56049
1204.11	55827.2
1203.18	55589.2
1202.26	55669
1201.34	55602.2
1200.42	55861.1
1199.5	55816
1198.58	55583.6
1197.66	55641.6
1196.74	55922
1195.82	55499.9
1194.89	55943
1193.97	55805.6
1193.05	55738.8
1192.13	55593.5
1191.21	55537.6
1190.28	55573.8
1189.36	55775.3
1188.44	55979.5
1187.51	55763.7
1186.59	55978.6
1185.67	56003.9
1184.74	55948
1183.82	55916.5
1182.9	55744.2
1181.97	55601.8
1181.05	55808.4
1180.12	55230.5
1179.2	55415.5
1178.27	55611.1
1177.35	55771.6
1176.42	55869.8
1175.5	56157.2
1174.57	55917.6
1173.65	56023.8
1172.72	56062.5
1171.8	56225.4
1170.87	56085.9
1169.94	55900.5
1169.02	56057.9
1168.09	55915.8
1167.17	56200
1166.24	55896
1165.31	55991.3
1164.38	55989.5
1163.46	55828.6
1162.53	56085.5
1161.6	56040.6
1160.67	55807
1159.75	56597.2
1158.82	56113.1
1157.89	56641.8
1156.96	56470.2
1156.03	56147.9
1155.1	57093.5
1154.17	56348.7
1153.25	56284.9
1152.32	56630
1151.39	56528.5
1150.46	56523.9
1149.53	56465.5
1148.6	56705.5
1147.67	56082.6
1146.74	56448.9
1145.81	56774.7
1144.88	56474.5
1143.94	56805.6
1143.01	56454.5
1142.08	57027.1
1141.15	56461.3
1140.22	56429.8
1139.29	56586.2
1138.36	56608.4
1137.42	56909.5
1136.49	56580.2
1135.56	56235
1134.63	56587
1133.69	57040.7
1132.76	56762.5
1131.83	56870.4
1130.9	56828.1
1129.96	57120.7
1129.03	57493.6
1128.1	56752.3
1127.16	56447.7
1126.23	56895.5
1125.29	56355.4
1124.36	57025.1
1123.42	56565.5
1122.49	57036.9
1121.56	56762
1120.62	56604.9
1119.69	56814.1
1118.75	56681
1117.81	56371.6
1116.88	56238.7
1115.94	56883.2
1115.01	56886.5
1114.07	56665.4
1113.13	57077.2
1112.2	56685.3
1111.26	56293.5
1110.33	56291.5
1109.39	56529.6
1108.45	56479.6
1107.51	56824.3
1106.58	56782.2
1105.64	56190.8
1104.7	57060.5
1103.76	56727.9
1102.82	56928.3
1101.89	56068.2
1100.95	56593.7
1100.01	56498.4
1099.07	56946.4
1098.13	56355.8
1097.19	56383.1
1096.25	56391.7
1095.31	56573.2
1094.37	56632.3
1093.43	57372.4
1092.49	56856.9
1091.55	57112.7
1090.61	57028
1089.67	57198.7
1088.73	56787.1
1087.79	57151.7
1086.85	56673.9
1085.91	57442.2
1084.97	57121.2
1084.03	56864
1083.09	57212.3
1082.14	56793.3
1081.2	56762
1080.26	56950.9
1079.32	56595.8
1078.38	57132.2
1077.43	56756
1076.49	56984.6
1075.55	57398.6
1074.6	57009.3
1073.66	56516.8
1072.72	57007.5
1071.77	57320.6
1070.83	56968.7
1069.89	56945.2
1068.94	57088.7
1068	57311.5
1067.05	57184.8
1066.11	57566.3
1065.16	57638
1064.22	57545.7
1063.27	57308
1062.33	57559.6
1061.38	57739.7
1060.44	57245.6
1059.49	57468
1058.54	57571.3
1057.6	57191.1
1056.65	57236.4
1055.71	57794.1
1054.76	57540.8
1053.81	57527.9
1052.87	57631.1
1051.92	57673.6
1050.97	57586.8
1050.02	57252
1049.08	57619
1048.13	57484.7
1047.18	57624.8
1046.23	57390.4
1045.28	57907.3
1044.33	57514.8
1043.39	57478.2
1042.44	57143.8
1041.49	57755.3
1040.54	57236.7
1039.59	57563.5
1038.64	57682.2
1037.69	57227
1036.74	57280
1035.79	57230.3
1034.84	57270
1033.89	57278.2
1032.94	56986.5
1031.99	57184.1
1031.04	57189.6
1030.09	56842.9
1029.13	56966.8
1028.18	57855.3
1027.23	56954.3
1026.28	57398.5
1025.33	57172.9
1024.38	57280.8
1023.42	57162.9
1022.47	57315.5
1021.52	57541.4
1020.57	57169
1019.61	57505
1018.66	57166.9
1017.71	57363.8
1016.75	57492.5
1015.8	57309.2
1014.85	56953
1013.89	56706.9
1012.94	57226
1011.98	56807.1
1011.03	56776
1010.07	57156
1009.12	56478.1
1008.16	57509.9
1007.21	56599.2
1006.25	56850.7
1005.3	56607.7
1004.34	56914.1
1003.39	57238.6
1002.43	56898.9
1001.47	57320.1
1000.52	56873.3
999.561	56904.9
998.604	57127.3
997.648	56633.7
996.69	56456.3
995.733	56976.4
994.776	57015.8
993.818	57172.6
992.861	56436.7
991.903	57217.4
990.944	57321.9
989.986	57157.7
989.028	57144.9
988.069	56967.7
987.11	57492
986.151	56879.5
985.192	56772.8
984.233	57109.2
983.274	57463.8
982.314	57062.7
981.354	56807.6
980.394	56719.3
979.434	57445.9
978.474	57276.8
977.513	57295.2
976.552	56725.4
975.592	57074.3
974.63	57014.6
973.669	57212.4
972.708	57524.6
971.746	57121.7
970.785	57412.9
969.823	57433.8
968.861	57545.6
967.898	57748.3
966.936	57758.7
965.973	57348.4
965.011	57717.2
964.048	57387.5
963.085	58119.6
962.121	57481
961.158	57883.3
960.194	57714.6
959.231	57592.7
958.267	57885.8
957.302	58178.7
956.338	57958.3
955.374	57859.7
954.409	57921.9
953.444	57877.8
952.479	58025.4
951.514	58035.7
950.549	57820.7
949.583	57548.7
948.617	58076.8
947.651	58014.6
946.685	57872.2
945.719	57817.8
944.753	57416.8
943.786	57753
942.82	57890
941.853	57561.6
940.885	57633.9
939.918	58233.5
938.951	57538.2
937.983	57556.3
937.015	58036.7
936.047	57742.2
935.079	57414.2
934.111	57587.1
933.142	58103.3
932.174	57341.8
931.205	57390.8
930.236	57808.8
929.267	57886.1
928.297	57512
927.328	57638.3
926.358	57511.9
925.388	58109.8
924.418	57297.9
923.448	58027
922.478	58196.9
921.507	57238.5
920.536	57488.3
919.565	57843.6
918.594	57884.6
917.623	57163.8
916.651	57223
915.68	57526.5
914.708	57498.1
913.736	57372
912.764	57011.9
911.791	56929.7
910.819	57510.6
909.846	57801
908.873	57448.8
907.9	57423
906.927	57487.1
905.954	57540.9
904.98	57325.1
904.006	57589.5
903.032	57319.8
902.058	57194
901.084	57142.6
900.11	57098.9
899.135	57596.5
898.16	57288.6
897.185	57350
896.21	57485.8
895.235	57585.6
894.259	57798.2
893.284	57582.8
892.308	57101
891.332	57595.2
890.355	57720.6
889.379	57612.8
888.403	57707.4
887.426	57676.5
886.449	57471.6
885.472	57358.8
884.494	57750.1
883.517	57496.6
882.539	57670.4
881.562	57608.8
880.584	57595.8
879.605	57641.6
878.627	57513.7
877.649	58356.6
876.67	58203
875.691	57949.8
874.712	57977.6
873.733	58202
872.753	57724.4
871.774	58040.6
870.794	58078.6
869.814	57608.8
868.834	58251.4
867.854	57687.4
866.873	57694.8
865.893	58214.7
864.912	58428.4
863.931	58257.3
862.95	58483.7
861.968	58284.6
860.987	58274
860.005	58492.7
859.023	57965.2
858.041	58143.1
857.059	57946.7
856.077	58264.5
855.094	58732.3
854.111	58431.6
853.128	58255.7
852.145	58209.6
851.162	58282.9
850.178	57962.2
849.195	57720.4
848.211	57928.5
847.227	57956.1
846.243	57640.8
845.258	57810.7
844.274	57782.4
843.289	57581.5
842.304	57799.5
841.319	58352.4
840.334	57517.2
839.348	57443.3
838.363	57574.9
837.377	57676.1
836.391	57843.1
835.405	57160.8
834.418	57614.3
833.432	57733.1
832.445	57575.6
831.458	57162.4
830.471	57878.9
829.484	57693.7
828.496	57452.8
827.509	57700.6
826.521	57158.6
825.533	57694.8
824.545	57292.2
823.557	57097.1
822.568	56886.9
821.579	56848.8
820.591	57164.6
819.602	57407
818.612	57401.6
817.623	57328
816.633	57057.4
815.644	56903
814.654	57215.9
813.664	57574.2
812.673	57495.5
811.683	57164.5
810.692	57113.8
809.701	57015.1
808.71	57146
807.719	57163.3
806.728	57301.7
805.736	57578.7
804.744	57548.1
803.753	57033.5
802.76	57978.2
801.768	57594.8
800.776	57536.4
799.783	57538.5
798.79	57389.6
797.797	57326.3
796.804	57154.7
795.811	57421.2
794.817	57617
793.823	57616.6
792.83	57721.8
791.835	57925.1
790.841	57826.5
789.847	57491.7
788.852	57737.6
787.857	58053.8
786.862	57794.5
785.867	57927.1
784.872	58087.4
783.876	57546.9
782.881	57862.8
781.885	57669
780.889	58030
779.892	57996.8
778.896	58181.9
777.899	58013.3
776.902	58035.3
775.905	57929.5
774.908	58049.3
773.911	58101.4
772.913	57760
771.916	58473.6
770.918	58320.1
769.92	58104.1
768.921	58038.4
767.923	57612.2
766.924	58104.8
765.926	58106.7
764.927	58436.5
763.927	58005.5
762.928	57987.4
761.928	58357
760.929	57853.7
759.929	58203.2
758.929	57922.6
757.928	57669.6
756.928	58253.8
755.927	57878.4
754.927	57902.8
753.926	58064.5
752.924	57759.3
751.923	57968.4
750.921	57783.1
749.92	58024.6
748.918	57829.4
747.916	57868.7
746.913	58087.6
745.911	57628.1
744.908	57455.5
743.906	57664.4
742.903	57863.2
741.899	57586
740.896	57881.9
739.892	57517.6
738.889	57332.7
737.885	57411.9
736.881	57787.3
735.876	57393.4
734.872	57460.1
733.867	57369.9
732.862	57633.1
731.857	57480.8
730.852	57246.4
729.847	57474.7
728.841	57327.4
727.835	57292.1
726.829	57646.9
725.823	57241.3
724.817	57842
723.81	57493.6
722.804	57339
721.797	57509.8
720.79	57151.7
719.783	57451.5
718.775	57378.9
717.768	57569.4
716.76	57482
715.752	57531
714.744	57644.4
713.735	57383.5
712.727	57650.6
711.718	57290.6
710.709	57614.6
709.7	57680.8
708.691	57714.9
707.681	57439.3
706.672	57777.9
705.662	57794.5
704.652	57647.8
703.642	57350.2
702.631	57433.7
701.621	57438
700.61	58082.9
699.599	57399.6
698.588	57537.5
697.577	57534.3
696.565	57968.7
695.553	58244.7
694.541	57692.9
693.529	58023.2
692.517	58076.8
691.505	58184.7
690.492	57700
689.479	57674.6
688.466	57952.8
687.453	57858.2
686.44	57447.9
685.426	57501.5
684.413	57821.4
683.399	57830.6
682.385	57285
681.37	57903
680.356	57318.2
679.341	57960.6
678.326	57767.6
677.311	56966.4
676.296	57431.2
675.281	57597.9
674.265	57540.6
673.249	57933.7
672.233	57492.4
671.217	57745.1
670.201	57427
669.184	57313.1
668.168	57531.3
667.151	57289.6
666.134	57328.2
665.116	57669.1
664.099	57120.4
663.081	57208.2
662.063	57281.2
661.045	56747.6
660.027	57098.1
659.009	57738.1
657.99	57219.4
656.972	57103.4
655.953	56899.1
654.933	56913.1
653.914	57091.5
652.895	56433.6
651.875	57144.1
650.855	57197.3
649.835	56998
648.815	56950.8
647.794	57307.8
646.774	57473.6
645.753	57196.1
644.732	56585.7
643.71	56876.4
642.689	56963.8
641.668	57149.1
640.646	57282.9
639.624	57362.9
638.602	56775.1
637.579	56945.6
636.557	57111.2
635.534	57056.6
634.511	56831.1
633.488	57600.1
632.465	57320.7
631.441	56594.5
630.418	57018.8
629.394	56996
628.37	57808.3
627.346	56906.7
626.321	57291.6
625.297	57234.6
624.272	57387.5
623.247	57379.4
622.222	57495.6
621.196	57353.4
620.171	57415.9
619.145	57751.4
618.119	57107.2
617.093	57172.2
616.067	57714.6
615.04	57616.3
614.014	57856.4
612.987	57770.3
611.96	57766.9
610.932	57853.6
609.905	57767.5
608.877	57876.1
607.849	57551.6
606.821	57871.7
605.793	57856.2
604.765	57787.2
603.736	57312.3
602.708	57386.7
601.679	57373.7
600.649	57066.7
599.62	57585.7
598.591	57689.2
597.561	57542.6
596.531	57488.2
595.501	57283.5
594.471	57666
593.44	57150.7
592.409	57603.4
591.379	57750.4
590.348	57281.5
589.316	57273.3
588.285	57296.6
587.253	57169.7
586.221	57391.8
585.189	57526.5
584.157	57508.6
583.125	58047.7
582.092	57041.8
581.059	57447.7
580.027	57601.6
578.993	57300.6
577.96	56869
576.927	57296.3
575.893	57295.4
574.859	56803.6
573.825	57407.2
572.79	57079.9
571.756	56979.9
570.721	56737.4
569.686	57253.5
568.651	57136.7
567.616	56908.8
566.581	56951.3
565.545	57054.3
564.509	57222.3
563.473	56668.7
562.437	56511.1
561.401	56577.8
560.364	57274
559.327	57130.7
558.29	57031
557.253	56895
556.216	57648.5
555.178	57351
554.14	57275.4
553.102	57349.1
552.064	57056.7
551.026	56692.2
549.987	57146.3
548.949	57111.6
547.91	57033.6
546.871	57039.9
545.831	57452.7
544.792	57559.9
543.752	57099.6
542.712	57233.2
541.672	57201
540.632	56719.3
539.592	57422.4
538.551	57709.7
537.51	57151.3
536.469	57707.5
535.428	57706.4
534.387	57695.7
533.345	57574.5
532.303	57400.7
531.261	57298.9
530.219	57377
529.177	57759.7
528.134	57350.9
527.091	57215.6
526.048	57178.6
525.005	57098.5
523.962	57466.4
522.918	57474.9
521.874	56911
520.831	57264.4
519.786	57328
518.742	56517.8
517.698	56933.3
516.653	57322.4
515.608	57192.1
514.563	57179.1
513.518	56804.9
512.472	56913.9
511.426	56929.6
510.381	56990.7
509.335	56941.9
508.288	57041.2
507.242	57248
506.195	56960.3
505.148	56753.9
504.101	56444.9
503.054	56260.1
502.007	56261.6
500.959	56172.4
499.911	56789.4
498.863	56208.7
497.815	56181.6
496.767	56109.1
495.718	55769.7
494.669	56197.9
493.62	55832.3
492.571	56050.7
491.522	55532.8
490.472	55658.2
489.422	56371.8
488.372	55916.1
487.322	55891.4
486.272	55864.3
485.221	55796.8
484.17	55653.2
483.12	55826
482.068	55934.5
481.017	55491.3
479.966	55559.4
478.914	55936.5
477.862	55700.3
476.81	55324
475.757	55917.1
474.705	55849.7
473.652	55815.5
472.599	56405.9
471.546	55683.2
470.493	55836.5
469.439	56141.8
468.386	56601.1
467.332	55999.8
466.278	56833.7
465.223	56142.6
464.169	56058.6
463.114	56128.7
462.059	56630.2
461.004	55892.2
459.949	56528.5
458.894	56352.2
457.838	56592.7
456.782	56520.5
455.726	56607.1
454.67	56733.8
453.613	56737.4
452.557	56591.9
451.5	56936.2
450.443	56665.4
449.386	56886.6
448.328	56906.7
447.271	56567.5
446.213	56483.6
445.155	56725.9
444.096	56431.8
443.038	56581.9
441.979	56365.9
440.921	56456.9
439.862	56689.5
438.802	56860.6
437.743	56571.5
436.683	56921.9
435.624	56654.2
434.564	56921.9
433.503	56762.7
432.443	56516.3
431.382	56246.5
430.322	56770.9
429.261	56371.5
428.199	56481.1
427.138	56155
426.076	55930.1
425.015	56647.2
423.953	56403.6
422.89	56454.2
421.828	56088.3
420.765	56059
419.703	56319
418.64	56254.4
417.576	56878.8
416.513	56120.5
415.45	56063
414.386	56092.4
413.322	55861.1
412.258	56257
411.193	55788.5
410.129	56527.2
409.064	56361.6
407.999	56036.5
406.934	56176.2
405.868	56355.8
404.803	56178.6
403.737	55919.5
402.671	56272.5
401.605	56566.8
400.538	56286.6
399.472	56515.1
398.405	56239.7
397.338	56306.5
396.271	56478.7
395.204	56386.1
394.136	56291.2
393.068	55981
392	56387.2
390.932	56238.5
389.864	56361.3
388.795	57043.3
387.726	56426.7
386.657	55911
385.588	56087.6
384.519	56236
383.449	56150.7
382.379	56577.1
381.31	56302.5
380.239	56331.6
379.169	55973.1
378.098	56238.1
377.028	55819
375.957	56434.1
374.885	55814.4
373.814	55990.6
372.742	55870.4
371.671	56307.7
370.599	56287.8
369.526	55757.3
368.454	56385.6
367.381	55971.8
366.309	56252.6
365.236	56046.3
364.163	56389.8
363.089	56111.4
362.015	56329.1
360.942	55862.1
359.868	55944.8
358.793	55915.6
357.719	56026.1
356.644	56238.9
355.57	56135.3
354.495	55941
353.419	55977
352.344	56512.8
351.268	55593.4
350.193	56022.1
349.117	55802.5
348.04	55873.3
346.964	56157.7
345.887	56126.3
344.81	56294.5
343.733	55780.2
342.656	56284.9
341.579	55647.8
340.501	56173.2
339.423	56151.1
338.345	56277.3
337.267	56359.5
336.188	56149.5
335.11	56036.9
334.031	56316.1
332.952	55983.4
331.873	55982.1
330.793	56298.1
329.713	56333.8
328.633	56098.7
327.553	56032.6
326.473	56218.7
325.393	55770.8
324.312	56243.8
323.231	55835.4
322.15	55827.2
321.069	55890.6
319.987	55796.9
318.905	55737.8
317.823	55923.7
316.741	55846.2
315.659	56288.4
314.576	56076.8
313.494	55837.7
312.411	55568.6
311.328	55703.5
310.244	56002.3
309.161	56067.8
308.077	55792
306.993	55894.5
305.909	55674.1
304.824	56306.8
303.74	55362.6
302.655	55773.9
301.57	55961.6
300.485	55683.8
299.4	55758.5
298.314	55759.5
297.228	55898.6
296.142	55356.3
295.056	55730.2
293.969	55535.6
292.883	55587.2
291.796	55321.4
290.709	55943.4
289.622	55282.1
288.534	55614.2
287.447	55343.9
286.359	55572.5
285.271	55081.8
284.182	55167.8
283.094	55632.9
282.005	55252.6
280.916	55366.2
279.827	55371.8
278.738	55446.2
277.649	55656
276.559	55273.8
275.469	55052.4
274.379	55019
273.288	55497
272.198	55683.6
271.107	55515
270.016	55697
268.925	55622.3
267.834	55472
266.742	55876.1
265.65	55105.3
264.558	55909.9
263.466	55189.7
262.374	55662.1
261.281	55322.1
260.188	55455.8
259.095	55147.9
258.002	55441.6
256.909	55728.4
255.815	55793.2
254.721	55556.4
253.627	55511.6
252.533	55350.3
251.438	55607.1
250.344	55676.5
249.249	55124.8
248.154	55150.9
247.059	55348.1
245.963	55289.7
244.867	55053.3
243.771	55280.2
242.675	55274.2
241.579	55692.5
240.482	55121.1
239.386	55539.1
238.289	54883.6
237.192	55962.4
236.094	55065.6
234.997	55036.9
233.899	55336.2
232.801	54751.9
231.703	55094.4
230.604	55398
229.506	55296.5
228.407	55392.9
227.308	55084.4
226.208	55340.1
225.109	55643.4
224.009	55200.9
222.909	55390.4
221.809	55520.8
220.709	55108.1
219.609	55370.2
218.508	55493.7
217.407	55476.4
216.306	55048.1
215.204	55516.6
214.103	56028
213.001	55502.3
211.899	55146.9
210.797	55984.8
209.695	55631.7
208.592	55473.7
207.489	55268.2
206.386	55516.1
205.283	55378.7
204.18	55689.9
203.076	55690.6
201.972	55883.9
200.868	55812.1
199.764	55987.1
198.659	56096.5
197.555	55644.5
196.45	55355.6
195.345	55655
194.239	55617.3
193.134	55394.1
192.028	55480.8
190.922	55309.8
189.816	54953.4
188.709	54782.5
187.603	55257.9
186.496	55001.1
185.389	54889
184.282	54688.9
183.174	54917.8
182.067	55103.7
180.959	54838.2
179.851	55236.2
178.743	54806.1
177.634	55208.4
176.525	54717.6
175.417	54592.2
174.307	54899.6
173.198	54566.8
172.089	54682.6
170.979	55080
169.869	54878
168.759	54631.1
167.648	55170.1
166.538	54416.7
165.427	54874.5
164.316	54639
163.205	54961.5
162.093	54613.7
160.982	54558.3
159.87	54284.8
158.758	54382.3
157.645	54554
156.533	54074
155.42	53987.3
154.307	54340.9
153.194	54112.7
152.081	54439.2
150.967	54244.7
149.853	54470
148.739	54203.8
147.625	54211.4
146.511	53920.6
145.396	54105.5
144.281	53938.2
143.166	53867.3
142.051	54200
140.935	54357.8
139.82	54112.1
138.704	54222.7
137.588	54109.3
136.471	53687
135.355	54332.7
134.238	53970.9
133.121	54092.6
132.004	54084.5
130.886	53443.3
129.769	53462.1
128.651	53653.2
127.533	53842
126.415	53485.2
125.296	53331.9
124.178	53603.3
123.059	53787.4
121.94	53196.3
120.82	53309
119.701	53368
118.581	53453.8
117.461	53229.3
116.341	53085.2
115.22	53023.7
114.1	52337.6
112.979	51520.2
111.858	50825.7
110.737	50008.8
109.615	49134.3
108.494	47373.1
107.372	45931.2
106.25	44376.2
105.127	43269.5
104.005	41441.7
102.882	39327.3
101.759	38482.7
100.636	37275.7
