3201.26	522.199
3200.67	585.369
3200.08	543.174
3199.48	534.672
3198.89	559.847
3198.3	580.806
3197.7	618.592
3197.11	530.141
3196.51	572.129
3195.92	483.713
3195.32	597.19
3194.73	563.46
3194.13	613.827
3193.54	559.086
3192.95	592.626
3192.35	567.322
3191.76	491.605
3191.16	554.547
3190.56	579.666
3189.97	575.379
3189.37	566.894
3188.78	604.595
3188.18	629.691
3187.59	583.426
3186.99	629.501
3186.4	608.426
3185.8	520.23
3185.2	645.995
3184.61	650.091
3184.01	645.799
3183.42	620.544
3182.82	595.297
3182.22	632.931
3181.63	616.072
3181.03	557.314
3180.43	620.075
3179.84	557.145
3179.24	515.177
3178.64	628.169
3178.05	594.577
3177.45	669.845
3176.85	602.769
3176.25	631.975
3175.66	627.694
3175.06	577.391
3174.46	585.671
3173.86	631.592
3173.27	577.129
3172.67	593.768
3172.07	639.667
3171.47	576.867
3170.87	614.396
3170.28	622.661
3169.68	572.427
3169.08	618.295
3168.48	676.68
3167.88	676.577
3167.28	588.783
3166.68	655.497
3166.09	647.048
3165.49	638.603
3164.89	651.026
3164.29	680.135
3163.69	655
3163.09	629.873
3162.49	671.485
3161.89	654.703
3161.29	658.773
3160.69	675.348
3160.09	654.405
3159.49	666.809
3158.89	604.204
3158.29	629.11
3157.69	616.518
3157.09	699.725
3156.49	674.632
3155.89	674.53
3155.29	620.307
3154.69	703.463
3154.09	682.547
3153.49	644.993
3152.89	669.859
3152.29	615.677
3151.69	644.699
3151.08	677.871
3150.48	694.401
3149.88	627.776
3149.28	681.72
3148.68	664.992
3148.08	606.713
3147.48	656.48
3146.87	735.312
3146.27	743.508
3145.67	606.345
3145.07	693.454
3144.47	610.313
3143.86	693.243
3143.26	693.138
3142.66	713.783
3142.06	692.928
3141.45	630.593
3140.85	750.79
3140.25	659.433
3139.64	729.828
3139.04	750.448
3138.44	725.461
3137.84	717.061
3137.23	692.087
3136.63	716.844
3136.03	679.448
3135.42	745.622
3134.82	770.36
3134.21	737.114
3133.61	679.036
3133.01	728.61
3132.4	749.196
3131.8	695.281
3131.19	753.106
3130.59	711.619
3129.99	785.971
3129.38	678.314
3128.78	769.191
3128.17	678.108
3127.57	752.42
3126.96	715.104
3126.36	785.255
3125.75	747.945
3125.15	747.832
3124.54	669.228
3123.94	714.561
3123.33	780.529
3122.73	668.923
3122.12	780.292
3121.52	738.894
3120.91	771.8
3120.3	763.43
3119.7	717.927
3119.09	820.953
3118.49	750.707
3117.88	849.572
3117.27	775.22
3116.67	729.75
3116.06	783.229
3115.45	803.718
3114.85	791.233
3114.24	725.186
3113.63	758.034
3113.03	790.872
3112.42	782.515
3111.81	823.574
3111.21	806.98
3110.6	835.674
3109.99	757.343
3109.38	777.804
3108.78	781.801
3108.17	806.366
3107.56	777.449
3106.95	822.573
3106.34	793.662
3105.74	875.773
3105.13	883.862
3104.52	846.734
3103.91	834.276
3103.3	862.913
3102.7	850.456
3102.09	850.327
3101.48	883.055
3100.87	870.601
3100.26	932.058
3099.65	866.231
3099.04	878.413
3098.43	833.134
3097.82	841.214
3097.21	886.217
3096.61	861.469
3096	844.932
3095.39	865.308
3094.78	959.484
3094.17	873.244
3093.56	864.913
3092.95	848.387
3092.34	876.943
3091.73	925.976
3091.12	942.221
3090.51	995.326
3089.9	913.267
3089.28	921.317
3088.67	941.647
3088.06	921.036
3087.45	879.967
3086.84	941.217
3086.23	932.89
3085.62	904.111
3085.01	895.793
3084.4	1001.99
3083.79	920.054
3083.17	915.826
3082.56	1017.88
3081.95	952.332
3081.34	939.927
3080.73	923.439
3080.12	984.579
3079.5	996.684
3078.89	1045.54
3078.28	926.96
3077.67	1028.89
3077.05	975.664
3076.44	1016.33
3075.83	1036.58
3075.22	1024.18
3074.6	1015.87
3073.99	1032.03
3073.38	978.85
3072.77	1031.71
3072.15	1068.25
3071.54	1027.32
3070.93	933.417
3070.31	978.104
3069.7	1063.53
3069.08	1071.51
3068.47	1006.17
3067.86	977.507
3067.24	1058.8
3066.63	1119.72
3066.02	1099.19
3065.4	997.263
3064.79	1062.23
3064.17	1033.58
3063.56	1074.11
3062.94	1012.93
3062.33	1094.12
3061.71	1057.35
3061.1	1126.31
3060.48	1024.5
3059.87	1073.13
3059.25	1064.83
3058.64	995.589
3058.02	1076.7
3057.41	1039.97
3056.79	1052
3056.18	1124.94
3055.56	1067.92
3054.95	1132.71
3054.33	1083.83
3053.71	1075.55
3053.1	1067.27
3052.48	1111.73
3051.87	1099.39
3051.25	1127.62
3050.63	1103.11
3050.02	1090.78
3049.4	1046.02
3048.78	1122.88
3048.17	1199.71
3047.55	1037.43
3046.93	1126.41
3046.31	1130.29
3045.7	1024.8
3045.08	1129.95
3044.46	1081.18
3043.85	1251.06
3043.23	1149.67
3042.61	1145.45
3041.99	1165.51
3041.37	1165.33
3040.76	1298.66
3040.14	1080.03
3039.52	1176.93
3038.9	1184.83
3038.28	1164.44
3037.67	1237.02
3037.05	1172.16
3036.43	1167.94
3035.81	1135.44
3035.19	1288.79
3034.57	1215.88
3033.95	1175.31
3033.33	1203.39
3032.71	1239.55
3032.1	1291.84
3031.48	1259.35
3030.86	1194.59
3030.24	1271.07
3029.62	1274.91
3029	1242.45
3028.38	1234.19
3027.76	1350.95
3027.14	1266.07
3026.52	1177.18
3025.9	1241.49
3025.28	1176.82
3024.66	1253.2
3024.04	1240.92
3023.42	1232.68
3022.8	1329.15
3022.17	1260.49
3021.55	1308.61
3020.93	1244
3020.31	1219.66
3019.69	1275.82
3019.07	1307.81
3018.45	1299.57
3017.83	1178.68
3017.2	1271.01
3016.58	1286.9
3015.96	1343
3015.34	1258.37
3014.72	1346.61
3014.1	1257.98
3013.47	1370.31
3012.85	1362.06
3012.23	1353.82
3011.61	1285.33
3010.98	1333.32
3010.36	1292.96
3009.74	1244.59
3009.12	1348.77
3008.49	1368.63
3007.87	1328.29
3007.25	1356.17
3006.62	1291.77
3006	1379.82
3005.38	1407.68
3004.75	1419.5
3004.13	1371.17
3003.51	1415.05
3002.88	1358.72
3002.26	1374.54
3001.63	1282.18
3001.01	1390.15
3000.39	1393.94
2999.76	1401.74
2999.14	1369.49
2998.51	1421.32
2997.89	1441.12
2997.26	1412.88
2996.64	1424.67
2996.02	1416.45
2995.39	1348.22
2994.77	1352.01
2994.14	1447.79
2993.51	1399.59
2992.89	1371.38
2992.26	1439.13
2991.64	1370.96
2991.01	1466.66
2990.39	1430.48
2989.76	1414.28
2989.14	1461.99
2988.51	1421.83
2987.88	1417.62
2987.26	1457.33
2986.63	1393.23
2986.01	1544.69
2985.38	1424.73
2984.75	1460.42
2984.13	1500.1
2983.5	1459.97
2982.87	1395.94
2982.25	1451.55
2981.62	1415.44
2980.99	1467.05
2980.36	1478.78
2979.74	1506.45
2979.11	1442.47
2978.48	1498.02
2977.85	1501.78
2977.23	1489.6
2976.6	1489.37
2975.97	1453.3
2975.34	1524.74
2974.71	1592.17
2974.09	1583.97
2973.46	1468.33
2972.83	1563.59
2972.2	1583.24
2971.57	1579.02
2970.94	1594.68
2970.32	1530.82
2969.69	1546.48
2969.06	1530.35
2968.43	1534.08
2967.8	1510.01
2967.17	1537.59
2966.54	1596.94
2965.91	1664.21
2965.28	1552.76
2964.65	1639.88
2964.02	1556.25
2963.39	1559.98
2962.76	1595.46
2962.13	1531.73
2961.5	1575.13
2960.87	1658.2
2960.24	1689.67
2959.61	1594.24
2958.98	1502.79
2958.35	1740.43
2957.72	1601.43
2957.09	1628.92
2956.46	1676.23
2955.83	1525.41
2955.2	1632.13
2954.57	1620
2953.93	1698.95
2953.3	1655.14
2952.67	1706.35
2952.04	1694.21
2951.41	1697.91
2950.78	1693.69
2950.14	1725.08
2949.51	1661.52
2948.88	1736.42
2948.25	1629.37
2947.62	1739.84
2946.98	1703.99
2946.35	1703.72
2945.72	1806.22
2945.09	1667.63
2944.45	1706.89
2943.82	1738.23
2943.19	1816.96
2942.55	1804.83
2941.92	1776.91
2941.29	1812.17
2940.65	1768.47
2940.02	1744.51
2939.39	1712.68
2938.75	1901.8
2938.12	1684.53
2937.49	1696.11
2936.85	1762.89
2936.22	1790.22
2935.58	1722.92
2934.95	1872.45
2934.32	1872.16
2933.68	1867.93
2933.05	1792.78
2932.41	1808.26
2931.78	1918.27
2931.14	1874.66
2930.51	1831.05
2929.87	1889.83
2929.24	1885.6
2928.6	1798.72
2927.97	1885.02
2927.33	1853.25
2926.7	1923.78
2926.06	1856.61
2925.43	1809.13
2924.79	1871.77
2924.15	1899
2923.52	1973.4
2922.88	1965.23
2922.25	1921.7
2921.61	1807.45
2920.97	2011.46
2920.34	1861.89
2919.7	1916.58
2919.06	1916.29
2918.43	1896.36
2917.79	1931.4
2917.15	1903.63
2916.52	1989.67
2915.88	1899.11
2915.24	1969.44
2914.6	1945.6
2913.97	2015.89
2913.33	1945
2912.69	2023.11
2912.05	1948.32
2911.42	1998.97
2910.78	1971.23
2910.14	1990.52
2909.5	2021.55
2908.86	2060.41
2908.23	2118.84
2907.59	2102.85
2906.95	2082.95
2906.31	1980.84
2905.67	2105.79
2905.03	2042.84
2904.39	2112.96
2903.75	2050.04
2903.12	2108.4
2902.48	2014.2
2901.84	1986.52
2901.2	2123.06
2900.56	1954.63
2899.92	2130.22
2899.28	2000.92
2898.64	2094.39
2898	2152.67
2897.36	2144.53
2896.72	2163.72
2896.08	2061.86
2895.44	2026.4
2894.8	2084.64
2894.16	2174.09
2893.52	2111.31
2892.88	2048.56
2892.24	2165.28
2891.59	2129.84
2890.95	2156.81
2890.31	2109.68
2889.67	2082.06
2889.03	2167.5
2888.39	2213.94
2887.75	2104.48
2887.11	2217.15
2886.46	2162.27
2885.82	2146.35
2885.18	2126.54
2884.54	2141.79
2883.9	2125.89
2883.25	2160.59
2882.61	2222.54
2881.97	2241.65
2881.33	2163.48
2880.68	2299.32
2880.04	2256.17
2879.4	2224.71
2878.76	2356.58
2878.11	2329
2877.47	2204.23
2876.83	2262.2
2876.18	2296.82
2875.54	2300.35
2874.9	2358.27
2874.25	2404.52
2873.61	2186.65
2872.97	2337.76
2872.32	2376.23
2871.68	2352.56
2871.03	2321.15
2870.39	2355.72
2869.75	2281.63
2869.1	2339.47
2868.46	2366.26
2867.81	2261.17
2867.17	2454.72
2866.52	2400.05
2865.88	2395.8
2865.23	2407.06
2864.59	2181.91
2863.94	2363.69
2863.3	2359.45
2862.65	2397.82
2862.01	2339.35
2861.36	2350.61
2860.71	2288.29
2860.07	2411.82
2859.42	2481.12
2858.78	2368.5
2858.13	2422.3
2857.48	2418.06
2856.84	2355.79
2856.19	2351.56
2855.55	2513.61
2854.9	2397.23
2854.25	2508.97
2853.61	2527.9
2852.96	2446.35
2852.31	2457.56
2851.66	2379.91
2851.02	2445.21
2850.37	2475.73
2849.72	2533.27
2849.08	2386.16
2848.43	2478.44
2847.78	2481.91
2847.13	2547.14
2846.48	2407.83
2845.84	2596.5
2845.19	2526.66
2844.54	2591.84
2843.89	2529.73
2843.24	2521.63
2842.59	2679.3
2841.95	2644.19
2841.3	2558.99
2840.65	2493.09
2840	2554.35
2839.35	2480.76
2838.7	2545.85
2838.05	2587.81
2837.4	2772.23
2836.75	2667.85
2836.1	2501.93
2835.45	2555.42
2834.81	2682
2834.16	2585.4
2833.51	2661.93
2832.86	2699.98
2832.21	2714.94
2831.56	2676.07
2830.9	2706.41
2830.25	2813.61
2829.6	2840.08
2828.95	2643.67
2828.3	2777.72
2827.65	2857.96
2827	2895.92
2826.35	2734.19
2825.7	2818.23
2825.05	2733.34
2824.4	2894.12
2823.74	2809.24
2823.09	2735.9
2822.44	2781.51
2821.79	2731.21
2821.14	2761.47
2820.49	2707.35
2819.83	2852.63
2819.18	2951.86
2818.53	2702.26
2817.88	2820.64
2817.23	2758.89
2816.57	2785.28
2815.92	2796.34
2815.27	2688.66
2814.61	2849.08
2813.96	2818.01
2813.31	2863.51
2812.66	2886.03
2812	2893.23
2811.35	2816.25
2810.7	2850.24
2810.04	2834.5
2809.39	2948.8
2808.73	2982.75
2808.08	2947.88
2807.43	2951.24
2806.77	2924.03
2806.12	2935.04
2805.46	2896.37
2804.81	2903.56
2804.15	2922.2
2803.5	2944.67
2802.85	2940.39
2802.19	2955.2
2801.54	3080.72
2800.88	2996.27
2800.23	3030.15
2799.57	3025.86
2798.92	2979.61
2798.26	2956.25
2797.6	3108.35
2796.95	2985.84
2796.29	3057.82
2795.64	3179.33
2794.98	3060.67
2794.33	3033.52
2793.67	3055.91
2793.01	2994.48
2792.36	3089.24
2791.7	3012.58
2791.04	3004.5
2790.39	3072.56
2789.73	3022.6
2789.07	3098.25
2788.42	3059.71
2787.76	3055.43
2787.1	3309.85
2786.45	3122.94
2785.79	3187.11
2785.13	3042.11
2784.47	3132.89
2783.82	3246.44
2783.16	3116.7
2782.5	3218.82
2781.84	3108.13
2781.18	3225.42
2780.53	3217.32
2779.87	3133.26
2779.21	3204.92
2778.55	3060.15
2777.89	3196.33
2777.23	3188.24
2776.57	3202.92
2775.92	3304.87
2775.26	3387.81
2774.6	3227.97
2773.94	3295.73
2773.28	3249.72
2772.62	3347.78
2771.96	3252.49
2771.3	3305.05
2770.64	3380.32
2769.98	3398.74
2769.32	3379.26
2768.66	3359.8
2768	3385.78
2767.34	3328.45
2766.68	3354.44
2766.02	3448.55
2765.36	3345.82
2764.7	3284.75
2764.04	3405.31
2763.38	3378.3
2762.72	3389.12
2762.06	3354.55
2761.39	3422.09
2760.73	3323.26
2760.07	3511.74
2759.41	3469.62
2758.75	3427.51
2758.09	3430.75
2757.43	3524.66
2756.76	3388.13
2756.1	3432.92
2755.44	3390.84
2754.78	3556.43
2754.12	3506.8
2753.45	3577.96
2752.79	3494.38
2752.13	3444.79
2751.46	3534.79
2750.8	3651.16
2750.14	3526.14
2749.48	3423.78
2748.81	3562.74
2748.15	3524.48
2747.49	3614.39
2746.82	3662.81
2746.16	3624.56
2745.5	3575.02
2744.83	3661.09
2744.17	3690.64
2743.5	3498.03
2742.84	3791.14
2742.18	3647.5
2741.51	3703.39
2740.85	3604.97
2740.18	3649.55
2739.52	3716.69
2738.85	3731.16
2738.19	3640.32
2737.52	3775.11
2736.86	3872.26
2736.19	3683.71
2735.53	3739.51
2734.86	3799.05
2734.2	3730.82
2733.53	3745.27
2732.87	3767.21
2732.2	3740.34
2731.54	3668.41
2730.87	3840.53
2730.2	3817.4
2729.54	3730.49
2728.87	3864.99
2728.2	3721.81
2727.54	3848.77
2726.87	3840.67
2726.21	3813.81
2725.54	3764.47
2724.87	3805.12
2724.2	3718.31
2723.54	3863.89
2722.87	3799.58
2722.2	3896.4
2721.54	3734.71
2720.87	3865.21
2720.2	3842.14
2719.53	3852.77
2718.87	3878.37
2718.2	3997.54
2717.53	3884.64
2716.86	3947.64
2716.19	3980.69
2715.52	3987.55
2714.86	3979.44
2714.19	3930.2
2713.52	3940.8
2712.85	4037.38
2712.18	3991.89
2711.51	4107.12
2710.84	3979.43
2710.17	4083.41
2709.5	4157.48
2708.84	4093.34
2708.17	4003.07
2707.5	4103.25
2706.83	4166.07
2706.16	4109.43
2705.49	4008.02
2704.82	3985.01
2704.15	4051.53
2703.48	4144.15
2702.81	4042.8
2702.14	4314.38
2701.47	4045.26
2700.79	4175.09
2700.12	4226.62
2699.45	4073.16
2698.78	4109.78
2698.11	4165.02
2697.44	4156.92
2696.77	4197.23
2696.1	4412.54
2695.43	4166.13
2694.75	4198.97
2694.08	4146.21
2693.41	4268.36
2692.74	4293.73
2692.07	4300.5
2691.39	4162.2
2690.72	4291.71
2690.05	4261.29
2689.38	4275.49
2688.71	4367.75
2688.03	4262.99
2687.36	4440.69
2686.69	4295.09
2686.01	4409.58
2685.34	4327.17
2684.67	4478.75
2683.99	4333.23
2683.32	4295.43
2682.65	4409.82
2681.97	4346.03
2681.3	4423.28
2680.63	4485.66
2679.95	4299.47
2679.28	4473.12
2678.6	4372.28
2677.93	4297.44
2677.26	4530.32
2676.58	4470.3
2675.91	4477.01
2675.23	4461.48
2674.56	4516.36
2673.88	4537.87
2673.21	4485.3
2672.53	4617.91
2671.86	4557.94
2671.18	4409.14
2670.51	4519.49
2669.83	4404.05
2669.16	4555.07
2668.48	4539.56
2667.8	4542.54
2667.13	4560.32
2666.45	4541.11
2665.78	4459.05
2665.1	4661.67
2664.42	4479.82
2663.75	4604.77
2663.07	4615.13
2662.39	4525.73
2661.72	4632.14
2661.04	4856.71
2660.36	4597.45
2659.69	4799.79
2659.01	4632.92
2658.33	4687.55
2657.65	4683.12
2656.98	4748.8
2656.3	4604.17
2655.62	4765.75
2654.94	4635.91
2654.26	4664.68
2653.59	4863.04
2652.91	4722.19
2652.23	4861.51
2651.55	4731.76
2650.87	4767.86
2650.19	4873.94
2649.52	4729.52
2648.84	4853.99
2648.16	4797.99
2647.48	4819.32
2646.8	4833.29
2646.12	4917.18
2645.44	4794.96
2644.76	4967.14
2644.08	5014.18
2643.4	4807.41
2642.72	4821.36
2642.04	5074.31
2641.36	4944.84
2640.68	4936.7
2640	4946.95
2639.32	5085.81
2638.64	4989.48
2637.96	5047.47
2637.28	5094.42
2636.6	4932.03
2635.92	4887.19
2635.24	5036.94
2634.56	4999.43
2633.88	4947.26
2633.19	5041.89
2632.51	5195.19
2631.83	5043.97
2631.15	5072.51
2630.47	5038.7
2629.79	5034.24
2629.1	4982.12
2628.42	4955.68
2627.74	5211.43
2627.06	5119
2626.38	4960.66
2625.69	5132.04
2625.01	5193.49
2624.33	5181.68
2623.65	5162.56
2622.96	5110.49
2622.28	5314.66
2621.6	5108.87
2620.91	5122.7
2620.23	5348.72
2619.55	5289.35
2618.86	5237.31
2618.18	5185.29
2617.5	5345.34
2616.81	5234.82
2616.13	5208.41
2615.44	5452.44
2614.76	5130.03
2614.07	5246.13
2613.39	5325.66
2612.71	5332.12
2612.02	5418.91
2611.34	5301.22
2610.65	5344.19
2609.97	5321.44
2609.28	5236.67
2608.6	5447.46
2607.91	5421.07
2607.23	5354.55
2606.54	5291.71
2605.85	5374.74
2605.17	5275.45
2604.48	5267.32
2603.8	5353.96
2603.11	5298.45
2602.42	5516.22
2601.74	5526.28
2601.05	5445.27
2600.37	5506.32
2599.68	5585.55
2598.99	5453.61
2598.31	5492.78
2597.62	5466.44
2596.93	5523.79
2596.24	5635.7
2595.56	5612.98
2594.87	5670.29
2594.18	5476.65
2593.49	5552.14
2592.81	5576.71
2592.12	5550.38
2591.43	5676.7
2590.74	5693.97
2590.06	5645.84
2589.37	5641.31
2588.68	5516.93
2587.99	5654.05
2587.3	5598.69
2586.61	5681.3
2585.92	5720.32
2585.24	5675.87
2584.55	5707.62
2583.86	5906.25
2583.17	5691.3
2582.48	5563.46
2581.79	5711.26
2581.1	5717.6
2580.41	5792.82
2579.72	5795.53
2579.03	5722.13
2578.34	5721.22
2577.65	6002.89
2576.96	5712.16
2576.27	5783.69
2575.58	5768.29
2574.89	5904.95
2574.2	5904.01
2573.51	5852.4
2572.82	5840.62
2572.13	5959.09
2571.43	5921.97
2570.74	5888.48
2570.05	6057.51
2569.36	6052.94
2568.67	6062.82
2567.98	5924.5
2567.29	5970.54
2566.59	5796.14
2565.9	5903.61
2565.21	5834.04
2564.52	5894.51
2563.83	5900.8
2563.13	5885.42
2562.44	6021.67
2561.75	6082.08
2561.06	6131.64
2560.36	5961.07
2559.67	6259.57
2558.98	6052.96
2558.28	6145.77
2557.59	6184.46
2556.9	5941.91
2556.2	5919.34
2555.51	6098.61
2554.82	6169.72
2554.12	6255.22
2553.43	6178.57
2552.73	6148.77
2552.04	6025.34
2551.35	6096.4
2550.65	6117.03
2549.96	6274.45
2549.26	6111.49
2548.57	6261.66
2547.87	6300.25
2547.18	6227.29
2546.48	6280.26
2545.79	6250.49
2545.09	6177.58
2544.4	6201.76
2543.7	6218.75
2543.01	6189.01
2542.31	6338.95
2541.61	6280.45
2540.92	6466.26
2540.22	6396.98
2539.53	6410.33
2538.83	6391.36
2538.13	6411.88
2537.44	6321.12
2536.74	6330.88
2536.04	6451.88
2535.35	6425.74
2534.65	6442.65
2533.95	6348.37
2533.26	6440.6
2532.56	6479.02
2531.86	6420.63
2531.16	6459.03
2530.47	6518.93
2529.77	6525.06
2529.07	6430.87
2528.37	6548.05
2527.68	6360.77
2526.98	6635.49
2526.28	6595.05
2525.58	6429.33
2524.88	6618
2524.18	6584.74
2523.48	6551.49
2522.79	6464.58
2522.09	6517.21
2521.39	6598.43
2520.69	6672.47
2519.99	6610.63
2519.29	6784.73
2518.59	6551.33
2517.89	6782.57
2517.19	6688.59
2516.49	6798.27
2515.79	6579.3
2515.09	6731.82
2514.39	6720.03
2513.69	6594.01
2512.99	6871.38
2512.29	6756.08
2511.59	7047.61
2510.89	6654.02
2510.19	6974.02
2509.49	6937.24
2508.79	6804.18
2508.09	6749.61
2507.38	7001.65
2506.68	6993.41
2505.98	6903.19
2505.28	6866.46
2504.58	7161.07
2503.88	6778.78
2503.17	6909.47
2502.47	6943.98
2501.77	6800.46
2501.07	6902.61
2500.36	6848.12
2499.66	6822.11
2498.96	7173.28
2498.26	7012.04
2497.55	7185.22
2496.85	6917.34
2496.15	6976.68
2495.45	6947.13
2494.74	7070.43
2494.04	6980.45
2493.33	6915.37
2492.63	7113.24
2491.93	7083.68
2491.22	6933.37
2490.52	7230.57
2489.82	7147.75
2489.11	7182.11
2488.41	7007.03
2487.7	7108.84
2487	7242.54
2486.29	7177.52
2485.59	7201.21
2484.88	7434.15
2484.18	7397.5
2483.47	7119.75
2482.77	7185.97
2482.06	7167.1
2481.36	7109.25
2480.65	7164.81
2479.95	7347.89
2479.24	7226.28
2478.54	7352.62
2477.83	7524.97
2477.12	7417.54
2476.42	7242.9
2475.71	7401.01
2475	7346.75
2474.3	7465.88
2473.59	7379.77
2472.88	7392.74
2472.18	7547.17
2471.47	7531.82
2470.76	7438.69
2470.06	7543.55
2469.35	7400.97
2468.64	7558.81
2467.93	7557.6
2467.23	7510.46
2466.52	7389.17
2465.81	7656.38
2465.1	7584.54
2464.39	7452.7
2463.69	7730.36
2462.98	7658.54
2462.27	7459.71
2461.56	7680.79
2460.85	7556.09
2460.14	7614.84
2459.43	7779.36
2458.73	7767.54
2458.02	7628.81
2457.31	7588.81
2456.6	7834.29
2455.89	7840.08
2455.18	7782.46
2454.47	7689.63
2453.76	7681.35
2453.05	7683.64
2452.34	7893.66
2451.63	7631.9
2450.92	7799.62
2450.21	7879.31
2449.5	7776.01
2448.79	7746.62
2448.08	7833.31
2447.36	7867.23
2446.65	7932.77
2445.94	7963.14
2445.23	7884.53
2444.52	8146.87
2443.81	8029.6
2443.1	7912.36
2442.39	7802.19
2441.67	7913.34
2440.96	7954.21
2440.25	8163.61
2439.54	8000.81
2438.83	8175.03
2438.11	8008.77
2437.4	8014.5
2436.69	8016.73
2435.98	8218.9
2435.26	8157.95
2434.55	8051.44
2433.84	8141.31
2433.12	7992.77
2432.41	8201.79
2431.7	8400.23
2430.98	8318.29
2430.27	8117.26
2429.56	7996.87
2428.84	8251.25
2428.13	7966.29
2427.41	8220.59
2426.7	8212.27
2425.99	8245.95
2425.27	8160.64
2424.56	8386.75
2423.84	8283.96
2423.13	8275.63
2422.41	8379.22
2421.7	8451.3
2420.98	8289.12
2420.27	8336.73
2419.55	8359.85
2418.84	8341.04
2418.12	8514.39
2417.41	8376.78
2416.69	8389.41
2415.97	8412.51
2415.26	8512.41
2414.54	8518.02
2413.83	8534.11
2413.11	8640.92
2412.39	8437.15
2411.68	8700.94
2410.96	8427.46
2410.24	8317.99
2409.53	8480.55
2408.81	8458.27
2408.09	8551.03
2407.37	8577.53
2406.66	8426.31
2405.94	8581.74
2405.22	8650.04
2404.5	8714.83
2403.79	8696.01
2403.07	8482.21
2402.35	8564.4
2401.63	8604.79
2400.91	8586.01
2400.19	8769.05
2399.48	8819.83
2398.76	8672.31
2398.04	8810.04
2397.32	9010.32
2396.6	8862.83
2395.88	8795.36
2395.16	9023.35
2394.44	8740.4
2393.72	8857.13
2393	8925.19
2392.28	8889.01
2391.56	8745.19
2390.84	9000.75
2390.12	8961.1
2389.4	9049.92
2388.68	8972.1
2387.96	8772.85
2387.24	8927.58
2386.52	8988.58
2385.8	8848.39
2385.08	8905.92
2384.36	9039.72
2383.64	8844.12
2382.92	8818.43
2382.2	9118.53
2381.48	9061.62
2380.75	9060.16
2380.03	8923.6
2379.31	8939.48
2378.59	9201.22
2377.87	9068.17
2377.14	9039.01
2376.42	8985.63
2375.7	9074.17
2374.98	9218.03
2374.25	9033.19
2373.53	9035.19
2372.81	9351.92
2372.09	9167.14
2371.36	8961.67
2370.64	9333.57
2369.92	9121.23
2369.19	9140.49
2368.47	9263.4
2367.75	9299.91
2367.02	9194.79
2366.3	9189.85
2365.57	9195.27
2364.85	9293.91
2364.13	9326.93
2363.4	9580.82
2362.68	9437.79
2361.95	9505.28
2361.23	9376.1
2360.5	9288.36
2359.78	9555.85
2359.05	9375.01
2358.33	9390.74
2357.6	9344.41
2356.88	9577.25
2356.15	9568.81
2355.43	9622.39
2354.7	9386.6
2353.97	9529.74
2353.25	9462.77
2352.52	9523.22
2351.8	9580.2
2351.07	9767.96
2350.34	9731.96
2349.62	9496.42
2348.89	9955.87
2348.16	9414.24
2347.44	9732.56
2346.71	9569.37
2345.98	9712.22
2345.25	9593.78
2344.53	9929.04
2343.8	9752.19
2343.07	9516.98
2342.34	9508.57
2341.62	9699.37
2340.89	10013.7
2340.16	9610.4
2339.43	10027.7
2338.7	9603.86
2337.97	10007.3
2337.25	9827.22
2336.52	9722.71
2335.79	9906.37
2335.06	9743.57
2334.33	10156.9
2333.6	9918.7
2332.87	9906.82
2332.14	9829.81
2331.41	9759.68
2330.68	10021.9
2329.95	9756.53
2329.22	9912.51
2328.49	10089
2327.76	10220.9
2327.03	9959.05
2326.3	9981.4
2325.57	9846.31
2324.84	10111.6
2324.11	10045
2323.38	10173.3
2322.65	10171.7
2321.92	10204.2
2321.19	10216.3
2320.46	10053.9
2319.72	10274.5
2318.99	10406.1
2318.26	10322.4
2317.53	10249
2316.8	10161.9
2316.07	10365.2
2315.33	10267.9
2314.6	10351.6
2313.87	10380.7
2313.14	10262.9
2312.4	10408
2311.67	10280.1
2310.94	10503.6
2310.2	10304
2309.47	10565
2308.74	10345
2308.01	10513.8
2307.27	10464.4
2306.54	10462.7
2305.8	10634.8
2305.07	10527.4
2304.34	10191.9
2303.6	10507
2302.87	10532.5
2302.13	10551.2
2301.4	10444
2300.67	10748.6
2299.93	10440.6
2299.2	10466.1
2298.46	10831.9
2297.73	10554.6
2296.99	10682.1
2296.26	10422
2295.52	10712.6
2294.79	10632.7
2294.05	10797.5
2293.31	10806
2292.58	10770.2
2291.84	10435.6
2291.11	10658.1
2290.37	10744.6
2289.63	10725.9
2288.9	10870.1
2288.16	10803.9
2287.42	10863.2
2286.69	10749.5
2285.95	10730.8
2285.21	10952.9
2284.48	10832.4
2283.74	11024
2283	10974.7
2282.26	10911.9
2281.53	10628.8
2280.79	10905
2280.05	11109.9
2279.31	10887.9
2278.57	10940.3
2277.84	10941.9
2277.1	10865.6
2276.36	10860.5
2275.62	10909.5
2274.88	10985.6
2274.14	11146.2
2273.4	11198.5
2272.67	10953.1
2271.93	11238.8
2271.19	11013.8
2270.45	10934.3
2269.71	10925.7
2268.97	10893.5
2268.23	11138.5
2267.49	11309
2266.75	11236.2
2266.01	11258
2265.27	11239.3
2264.53	11197
2263.79	11222.1
2263.05	11304.7
2262.31	11167.9
2261.57	11398.9
2260.82	11231.7
2260.08	11270.4
2259.34	11265.2
2258.6	11337.5
2257.86	11248
2257.12	11158.5
2256.38	11116.3
2255.63	11411
2254.89	11271
2254.15	11292.8
2253.41	11311.1
2252.67	11218.4
2251.92	11502.8
2251.18	11467.2
2250.44	11350.9
2249.7	11527.4
2248.95	11572.7
2248.21	11510.2
2247.47	11568.9
2246.72	11301.3
2245.98	11551.7
2245.24	11422
2244.49	11601.7
2243.75	11495.6
2243	11487
2242.26	11659.9
2241.52	11577.3
2240.77	11639.3
2240.03	11734.8
2239.28	11655.6
2238.54	11589.9
2237.79	11729
2237.05	11730.5
2236.3	11735.3
2235.56	11709.9
2234.81	11738.2
2234.07	11870.4
2233.32	11942.3
2232.58	11735.8
2231.83	11764.1
2231.09	11902.9
2230.34	11850.7
2229.59	11952.6
2228.85	11753
2228.1	11988.9
2227.35	12127.7
2226.61	11834.3
2225.86	11812.3
2225.11	12071.5
2224.37	11805.1
2223.62	12101
2222.87	11945.2
2222.13	11729.1
2221.38	12041.6
2220.63	12059.7
2219.88	11867.1
2219.14	12002.3
2218.39	11920.1
2217.64	12098.6
2216.89	11969.7
2216.14	12041.2
2215.4	12042.6
2214.65	12257.7
2213.9	12178.9
2213.15	12026.7
2212.4	12255.1
2211.65	12176.3
2210.9	12311.1
2210.15	12332.5
2209.4	11946.8
2208.65	12321.8
2207.9	12323.1
2207.16	12247.7
2206.41	12242.4
2205.66	12270.4
2204.91	12478.4
2204.15	12406.3
2203.4	12351
2202.65	12482.2
2201.9	12410.2
2201.15	12321.6
2200.4	12439.5
2199.65	12344.2
2198.9	12418.8
2198.15	12679.7
2197.4	12524.5
2196.65	12452.6
2195.89	12467.2
2195.14	12525
2194.39	12636
2193.64	12324.8
2192.89	12625.3
2192.13	12619.9
2191.38	12714.2
2190.63	12775.2
2189.88	12630.3
2189.12	12688
2188.37	12689.3
2187.62	12700.5
2186.87	12811.3
2186.11	12922
2185.36	13182.1
2184.61	12821.6
2183.85	12587.2
2183.1	12830.6
2182.35	12848.4
2181.59	12925.9
2180.84	12983.5
2180.08	13213.4
2179.33	12883.1
2178.57	12914.1
2177.82	12825.9
2177.07	12999.4
2176.31	13023.7
2175.56	13154.1
2174.8	13214.8
2174.05	13259
2173.29	13299.9
2172.53	13039.5
2171.78	13083.7
2171.02	13098.1
2170.27	13198.5
2169.51	13216.2
2168.76	13095
2168	13165.6
2167.24	13381.6
2166.49	13300.1
2165.73	13172.3
2164.97	13196.6
2164.22	13260.5
2163.46	13268.3
2162.7	13338.7
2161.95	13174.8
2161.19	13317.9
2160.43	13391.6
2159.67	13211.2
2158.92	13463.1
2158.16	13295.9
2157.4	13587.3
2156.64	13667.6
2155.88	13282.8
2155.13	13567.5
2154.37	13238.9
2153.61	13503.7
2152.85	13340
2152.09	13347.7
2151.33	13612.3
2150.57	13511.3
2149.82	13519
2149.06	13641.9
2148.3	13573.8
2147.54	13295
2146.78	13362
2146.02	13534.2
2145.26	13584.6
2144.5	13589
2143.74	13488.1
2142.98	13587.8
2142.22	13822.3
2141.46	13790.4
2140.7	13594.2
2139.94	13687.3
2139.17	13704.8
2138.41	13696
2137.65	13782.4
2136.89	13842.5
2136.13	13899.4
2135.37	13723.1
2134.61	13770.1
2133.84	13698.9
2133.08	13342.2
2132.32	13750.1
2131.56	13944.7
2130.8	13981.8
2130.03	13940.1
2129.27	13888.6
2128.51	13847
2127.75	13808.7
2126.98	13901.5
2126.22	13954.9
2125.46	13834.6
2124.69	13973.2
2123.93	14088.8
2123.17	14014.5
2122.4	14031.8
2121.64	13937.8
2120.88	14118.8
2120.11	13936.5
2119.35	13934.2
2118.58	13879.6
2117.82	13998.3
2117.05	13662.5
2116.29	14072.2
2115.53	14004.5
2114.76	14188.5
2114	14258.1
2113.23	14321.1
2112.47	14126
2111.7	14571.1
2110.93	14098.5
2110.17	14595.7
2109.4	14266.8
2108.64	14225.3
2107.87	14275.2
2107.1	14403.4
2106.34	14326
2105.57	13922.4
2104.81	14337.6
2104.04	14400.4
2103.27	14450.2
2102.51	14395.7
2101.74	14530.2
2100.97	14615.8
2100.2	14890.3
2099.44	14399.2
2098.67	14540.2
2097.9	14606.2
2097.13	14372.6
2096.37	14432.1
2095.6	14595.7
2094.83	14414.3
2094.06	14708
2093.29	14588.5
2092.52	14651.1
2091.76	14248.7
2090.99	14441.4
2090.22	14601.6
2089.45	14849.5
2088.68	14782.1
2087.91	14773.1
2087.14	14504.3
2086.37	14696.8
2085.6	14941.2
2084.83	14666
2084.06	14666.8
2083.29	14820.2
2082.52	15207.3
2081.75	15042.5
2080.98	15033.5
2080.21	14920.7
2079.44	15155.1
2078.67	14844.4
2077.9	15043
2077.13	14914.1
2076.36	14590.7
2075.58	15068
2074.81	15149.8
2074.04	15215.3
2073.27	15018.4
2072.5	14798.9
2071.73	15246.6
2070.95	14943
2070.18	14853.1
2069.41	14853.9
2068.64	15243
2067.86	15046.4
2067.09	14998.6
2066.32	14915.3
2065.55	15245.9
2064.77	15072
2064	15072.8
2063.23	15180.2
2062.45	15106.6
2061.68	14906.9
2060.9	15259.9
2060.13	15289.7
2059.36	14973.8
2058.58	15213.6
2057.81	15417.7
2057.03	15237.6
2056.26	15383.6
2055.48	15384.2
2054.71	15362.3
2053.93	15030.7
2053.16	15205.7
2052.38	15390.2
2051.61	15255.4
2050.83	15104.6
2050.06	15321.3
2049.28	15315.6
2048.51	15532.2
2047.73	15561.8
2046.95	15723.5
2046.18	15440.7
2045.4	15463.9
2044.63	15564.4
2043.85	15462
2043.07	15787.8
2042.3	15579.2
2041.52	15547.6
2040.74	15731.7
2039.96	15658.3
2039.19	15636.4
2038.41	15678.8
2037.63	15727.7
2036.85	15477.6
2036.08	15565
2035.3	15646
2034.52	15662.7
2033.74	15521.9
2032.96	15657.5
2032.19	15532.8
2031.41	15889.9
2030.63	16018.9
2029.85	15769.1
2029.07	16177.2
2028.29	15866.5
2027.51	15735.6
2026.73	15720.1
2025.95	15845.8
2025.17	16151
2024.39	15645
2023.61	15921.3
2022.83	15684.7
2022.05	15874.3
2021.27	16044.7
2020.49	16102.9
2019.71	15936.9
2018.93	16264.1
2018.15	15739.5
2017.37	15608.9
2016.59	15804.7
2015.81	16099.7
2015.03	16202.6
2014.24	16209.5
2013.46	16037.3
2012.68	16389.6
2011.9	16246.2
2011.12	16435.3
2010.33	16090.6
2009.55	16279.7
2008.77	16101.2
2007.99	16184.8
2007.2	16226.9
2006.42	16284.8
2005.64	16384.3
2004.86	16384.8
2004.07	16264
2003.29	16532.6
2002.51	16213.9
2001.72	16332.4
2000.94	16492.4
2000.15	16387.6
1999.37	16439.1
1998.59	16315.2
1997.8	16440
1997.02	16705
1996.23	16772.4
1995.45	16677.2
1994.66	16562.9
1993.88	16709.9
1993.09	16751.7
1992.31	16532.4
1991.52	16472.3
1990.74	16511
1989.95	16584.6
1989.17	16807.8
1988.38	16451.8
1987.6	17082.1
1986.81	16649.9
1986.02	16987.4
1985.24	16889.2
1984.45	16899.1
1983.66	16759.6
1982.88	16941.2
1982.09	16623.8
1981.3	16544.8
1980.52	16916.8
1979.73	16974.4
1978.94	17177.9
1978.15	16924.3
1977.37	16667.5
1976.58	16950.4
1975.79	16874.6
1975	17052.6
1974.22	17573.1
1973.43	17145.2
1972.64	17123.4
1971.85	17177.6
1971.06	16975
1970.27	17216.2
1969.48	17254.6
1968.69	17115.5
1967.91	17385
1967.12	17417
1966.33	17246.2
1965.54	17281.4
1964.75	17471.6
1963.96	17500.3
1963.17	17218.9
1962.38	17292
1961.59	17298.6
1960.8	17327.4
1960.01	17160
1959.22	17160.3
1958.43	17249.2
1957.63	17631.9
1956.84	17581.6
1956.05	17468.1
1955.26	17559.9
1954.47	17152.7
1953.68	17547.8
1952.89	17592.2
1952.09	17756.6
1951.3	17548.5
1950.51	17561.3
1949.72	17479.5
1948.93	17612.3
1948.13	17539.9
1947.34	17360.4
1946.55	17679.1
1945.76	17688.8
1944.96	17386.4
1944.17	17654.5
1943.38	17730.4
1942.58	17585.6
1941.79	17513.4
1941	17595.5
1940.2	17910.7
1939.41	17973.8
1938.61	17810.2
1937.82	17970.9
1937.02	17964.8
1936.23	17791.9
1935.44	17936.8
1934.64	17691.6
1933.85	17902.5
1933.05	18169.9
1932.26	17883.9
1931.46	18060.1
1930.67	17884.3
1929.87	17790.1
1929.07	17872
1928.28	18026.1
1927.48	17800.1
1926.69	18130
1925.89	18362.5
1925.09	18095.7
1924.3	17854.1
1923.5	18073.9
1922.7	17942.3
1921.91	18105.6
1921.11	18256.2
1920.31	18061.9
1919.52	18218.8
1918.72	18215.7
1917.92	18360
1917.12	18112.5
1916.33	18350.7
1915.53	18269.4
1914.73	18247.5
1913.93	18094.1
1913.13	18194.4
1912.33	18059.9
1911.54	18232.2
1910.74	18257.3
1909.94	18467
1909.14	18291.9
1908.34	18460.9
1907.54	18226.3
1906.74	18185.7
1905.94	18217.1
1905.14	18548.6
1904.34	18420.4
1903.54	18283
1902.74	18417.4
1901.94	18664.3
1901.14	18626.8
1900.34	18520.6
1899.54	18505
1898.74	18664.3
1897.94	18604.9
1897.14	18448.9
1896.34	18589.3
1895.54	18854.6
1894.73	18658
1893.93	18835.8
1893.13	18754.7
1892.33	18807.6
1891.53	18735.9
1890.73	18873
1889.92	18798.2
1889.12	19087.9
1888.32	18857.3
1887.52	18997.4
1886.71	19013
1885.91	19068.9
1885.11	19115.5
1884.3	18894.4
1883.5	19000.2
1882.7	19087.3
1881.89	18875.6
1881.09	18825.8
1880.29	19139.9
1879.48	18919
1878.68	19086.8
1877.87	19335.4
1877.07	18903.3
1876.27	19074.1
1875.46	19307.1
1874.66	18983.8
1873.85	19272.6
1873.05	19427.8
1872.24	19334.5
1871.44	19421.3
1870.63	19442.8
1869.82	19092
1869.02	19166.4
1868.21	19321.4
1867.41	19395.7
1866.6	19590.9
1865.79	19404.7
1864.99	19482
1864.18	19342.4
1863.38	19509.6
1862.57	19326.6
1861.76	19905.8
1860.95	19598.9
1860.15	19471.7
1859.34	19555.1
1858.53	19842.9
1857.72	19548.6
1856.92	19879.6
1856.11	19743.2
1855.3	19569.7
1854.49	19538.5
1853.68	19615.7
1852.88	19862.9
1852.07	19695.7
1851.26	19893.3
1850.45	19571.6
1849.64	19695
1848.83	19969.8
1848.02	20133.3
1847.21	19913.7
1846.4	19820.7
1845.59	19931.7
1844.78	20095
1843.97	19600.9
1843.16	19526.6
1842.35	19930.6
1841.54	19652.7
1840.73	20223.1
1839.92	20290.7
1839.11	19756.9
1838.3	20117.3
1837.49	19901.3
1836.68	20200
1835.87	19845.3
1835.06	19878.9
1834.25	20359.2
1833.43	20321.9
1832.62	19961.3
1831.81	20090.3
1831	20154.6
1830.19	20062
1829.37	20369.4
1828.56	20295.2
1827.75	20374.9
1826.94	20260.7
1826.12	20417.2
1825.31	20423
1824.5	20499.5
1823.68	20124.1
1822.87	20511.1
1822.06	20390.8
1821.24	20292.2
1820.43	20233.5
1819.61	20297.6
1818.8	20432.4
1817.99	20536.4
1817.17	20505.3
1816.36	20710.6
1815.54	20673.3
1814.73	20470.4
1813.91	20546.7
1813.1	20150.7
1812.28	20733
1811.47	20524.1
1810.65	20643.2
1809.84	20535.5
1809.02	20467.7
1808.2	20476.5
1807.39	20822.3
1806.57	20579.9
1805.75	20533.5
1804.94	20649.5
1804.12	20719.5
1803.3	20884.3
1802.49	20685
1801.67	20657
1800.85	20898.3
1800.04	20809.1
1799.22	20747.5
1798.4	20802.1
1797.58	20703.8
1796.77	20782.8
1795.95	20904.6
1795.13	21102.8
1794.31	20980.1
1793.49	20796.3
1792.67	21134.9
1791.86	21149.6
1791.04	21020.9
1790.22	21200.5
1789.4	21077.9
1788.58	21089.6
1787.76	21516.2
1786.94	21265.5
1786.12	21255.8
1785.3	21328.4
1784.48	20983.3
1783.66	20909.7
1782.84	21122.6
1782.02	21195.2
1781.2	21121.5
1780.38	21361.7
1779.56	21449.4
1778.74	21339.2
1777.92	21414.8
1777.1	21125
1776.27	21328.4
1775.45	21437.4
1774.63	21397.3
1773.81	21445.4
1772.99	21384
1772.17	21684.5
1771.34	21154.8
1770.52	21388.3
1769.7	21649.2
1768.88	21645.5
1768.05	21295.4
1767.23	21975.4
1766.41	21889.7
1765.58	21694.6
1764.76	21791.2
1763.94	21535.5
1763.11	21826.3
1762.29	21573.7
1761.47	21715.8
1760.64	22276.4
1759.82	21984.5
1758.99	21556.1
1758.17	21819.3
1757.35	21879.3
1756.52	22033.3
1755.7	21944.7
1754.87	22150.1
1754.05	22016
1753.22	21963.8
1752.4	21854.1
1751.57	22138.1
1750.74	22040.5
1749.92	21976.2
1749.09	22405.3
1748.27	22080.7
1747.44	22192
1746.61	22061.1
1745.79	21875.9
1744.96	22077.9
1744.13	21983.4
1743.31	22031.1
1742.48	22275.2
1741.65	22344
1740.83	22204.2
1740	22354.5
1739.17	22248.1
1738.34	22455.7
1737.51	22476.1
1736.69	22387.7
1735.86	22486.6
1735.03	22491.8
1734.2	22306.9
1733.37	22623
1732.54	22091.2
1731.72	22627.4
1730.89	22620.5
1730.06	22152.3
1729.23	22462.1
1728.4	22633.1
1727.57	22490.6
1726.74	22779.1
1725.91	22618.6
1725.08	22322.6
1724.25	22668.1
1723.42	22745.6
1722.59	22386.5
1721.76	22701.7
1720.93	22788.2
1720.1	22772.3
1719.27	22545.8
1718.43	22972.1
1717.6	22511.1
1716.77	22892.1
1715.94	22861.2
1715.11	22833.3
1714.28	22946.6
1713.45	22666.2
1712.61	22851.7
1711.78	23022
1710.95	22843.9
1710.12	22903.1
1709.28	22839.2
1708.45	22724.2
1707.62	23152.5
1706.78	22890.5
1705.95	23030.7
1705.12	23074.8
1704.28	23001.9
1703.45	23033.9
1702.62	23045
1701.78	23331.9
1700.95	23013.2
1700.11	22811.5
1699.28	23017.4
1698.45	23450.8
1697.61	22464.4
1696.78	23206.3
1695.94	23037.6
1695.11	23102.6
1694.27	23191.4
1693.44	23205.5
1692.6	23539.6
1691.76	23341.2
1690.93	23106.9
1690.09	23318.3
1689.26	23550.5
1688.42	23477.8
1687.58	23357.2
1686.75	23664
1685.91	23340.3
1685.07	23632.1
1684.24	23538.4
1683.4	23686.8
1682.56	23560.3
1681.73	23774.2
1680.89	23450.8
1680.05	23664.7
1679.21	23911.3
1678.37	23898.3
1677.54	23455.7
1676.7	24057.2
1675.86	23784.7
1675.02	23664.4
1674.18	23642.4
1673.34	24005
1672.51	23983
1671.67	23919.4
1670.83	23766.3
1669.99	24042.3
1669.15	23939.9
1668.31	23879.3
1667.47	23833.5
1666.63	24103.3
1665.79	23986.1
1664.95	24223
1664.11	23909.5
1663.27	24345.6
1662.43	24085.7
1661.59	24185.7
1660.75	24244
1659.9	24037.7
1659.06	24274.4
1658.22	24071.1
1657.38	24349.3
1656.54	24469.9
1655.7	24385.5
1654.85	24146.8
1654.01	24127.8
1653.17	24696.6
1652.33	24535.1
1651.49	24329.1
1650.64	24639.4
1649.8	24519.6
1648.96	24642.9
1648.11	24478.6
1647.27	24655.2
1646.43	24559.1
1645.58	24614.2
1644.74	24764.1
1643.9	24854.7
1643.05	24826.8
1642.21	24721.8
1641.36	24996
1640.52	24737.1
1639.68	24765.4
1638.83	24873.6
1637.99	24567.6
1637.14	24658
1636.3	24837.2
1635.45	24862.6
1634.61	24896.8
1633.76	25031.5
1632.91	25018.3
1632.07	25049.5
1631.22	25172.3
1630.38	24916.9
1629.53	24995.3
1628.68	25097.4
1627.84	25314.6
1626.99	25059.3
1626.14	25376.8
1625.3	25038.9
1624.45	25273.7
1623.6	25301.8
1622.75	25250.3
1621.91	25366.9
1621.06	25630.9
1620.21	25384.8
1619.36	25306.7
1618.52	25446.8
1617.67	25460.2
1616.82	25541.3
1615.97	25389.6
1615.12	25288
1614.27	25799.1
1613.42	25238.2
1612.57	25086.6
1611.72	25756.4
1610.88	25525.4
1610.03	25441.6
1609.18	25572.6
1608.33	25585.8
1607.48	25684.4
1606.63	25891.7
1605.78	25755
1604.93	25956.3
1604.07	25957.8
1603.22	25844.6
1602.37	25810.8
1601.52	25876.9
1600.67	26001.7
1599.82	26296.7
1598.97	25881.2
1598.12	26079.3
1597.26	26151.2
1596.41	26117.3
1595.56	25933.9
1594.71	26190.5
1593.86	26045.2
1593	26442.5
1592.15	26256.2
1591.3	26533.1
1590.45	26006.9
1589.59	26304.3
1588.74	26103.4
1587.89	26113.6
1587.03	26290.7
1586.18	26090
1585.32	26372.5
1584.47	26154.3
1583.62	26123.4
1582.76	26206.7
1581.91	26199.3
1581.05	26387.9
1580.2	26009
1579.34	26399.3
1578.49	26198.9
1577.63	26516
1576.78	26336.1
1575.92	26708.5
1575.07	26344.5
1574.21	26722.7
1573.36	26794.1
1572.5	26684.4
1571.64	26571.7
1570.79	26902.9
1569.93	26495.5
1569.07	26537.6
1568.22	26670.2
1567.36	26554.8
1566.5	26582.3
1565.65	26805.2
1564.79	26686.9
1563.93	26807.7
1563.07	26669
1562.22	26818.9
1561.36	26852.1
1560.5	27232.1
1559.64	27113.8
1558.78	26861.6
1557.92	27189
1557.07	26846.6
1556.21	26955.5
1555.35	27116.7
1554.49	27173.2
1553.63	26970.7
1552.77	27056.2
1551.91	27380.2
1551.05	27093.4
1550.19	27120.8
1549.33	27194.6
1548.47	27396.3
1547.61	27098
1546.75	27276.4
1545.89	27486.7
1545.03	27609.8
1544.17	27729.9
1543.31	27606.1
1542.45	27816.2
1541.58	27796.9
1540.72	28151.9
1539.86	27926.6
1539	28191.5
1538.14	28337.5
1537.28	28399.3
1536.41	28235
1535.55	28195.3
1534.69	28810.8
1533.83	29104.3
1532.96	29139.8
1532.1	29068.2
1531.24	29671.4
1530.37	29486.8
1529.51	29308
1528.65	29549
1527.78	28996.9
1526.92	28818.2
1526.05	28399.5
1525.19	28073.5
1524.33	27973.2
1523.46	27572.2
1522.6	27373.7
1521.73	27493.3
1520.87	27870.1
1520	27388.4
1519.14	27386.6
1518.27	27474.3
1517.41	27302.1
1516.54	27323.4
1515.67	27434.1
1514.81	27599.7
1513.94	27658.5
1513.08	27489.2
1512.21	27876.9
1511.34	27534.6
1510.48	27593.3
1509.61	27836.5
1508.74	27428
1507.88	27414.7
1507.01	27810.6
1506.14	27615.6
1505.27	27662.7
1504.41	27960.4
1503.54	27834.6
1502.67	27438.1
1501.8	27416.1
1500.93	27477.6
1500.06	27366.4
1499.2	27773.2
1498.33	27503.7
1497.46	27723.3
1496.59	27235.3
1495.72	27670.6
1494.85	27832.6
1493.98	27425.3
1493.11	27802.9
1492.24	27798.1
1491.37	27618
1490.5	27653.4
1489.63	27884.2
1488.76	27804.7
1487.89	27395
1487.02	27766.4
1486.15	27566.4
1485.28	27647.8
1484.41	27869.7
1483.54	27824.7
1482.66	27685.1
1481.79	27869.6
1480.92	27890.6
1480.05	28135.2
1479.18	27840.8
1478.3	27962.1
1477.43	27965.8
1476.56	28138.6
1475.69	28013.5
1474.81	28040.1
1473.94	27889.2
1473.07	28308.2
1472.19	27799.4
1471.32	27903.4
1470.45	28456.6
1469.57	27893.7
1468.7	27754.4
1467.83	28158.7
1466.95	28251
1466.08	28128.9
1465.2	28198.4
1464.33	28319.2
1463.45	27897.1
1462.58	28172.3
1461.7	28473.1
1460.83	27982.6
1459.95	28577.5
1459.08	28449.7
1458.2	28490.5
1457.32	28565.5
1456.45	28845.9
1455.57	28606.9
1454.7	28861.6
1453.82	28822.4
1452.94	28988.5
1452.07	28943.5
1451.19	28807.4
1450.31	29016.2
1449.43	28823
1448.56	28664.2
1447.68	28602.2
1446.8	28981.8
1445.92	28740.4
1445.05	28775.3
1444.17	28670.7
1443.29	28674.2
1442.41	28746.1
1441.53	28658.6
1440.65	28665
1439.77	28603.2
1438.9	28677.8
1438.02	28735.4
1437.14	28463.2
1436.26	28600.4
1435.38	28697.7
1434.5	28832
1433.62	28966.2
1432.74	28708.4
1431.86	28737.5
1430.98	28777.9
1430.1	28775.7
1429.22	28742.4
1428.33	28981.4
1427.45	28814.7
1426.57	28869.2
1425.69	28773.5
1424.81	28825.2
1423.93	29083.9
1423.05	28511.8
1422.16	28750.7
1421.28	29020.6
1420.4	28902.2
1419.52	29194.6
1418.63	28940.3
1417.75	28680.4
1416.87	28780.2
1415.99	28817.6
1415.1	28775.8
1414.22	28601
1413.34	28881.9
1412.45	28902.3
1411.57	29166
1410.68	29042.1
1409.8	29006
1408.92	28998.1
1408.03	29125.9
1407.15	29149.1
1406.26	28949.1
1405.38	28961
1404.49	29439
1403.61	28965.1
1402.72	29222.6
1401.84	29615.6
1400.95	29040.3
1400.06	29184.8
1399.18	29165.6
1398.29	28982.8
1397.41	29110.3
1396.52	28913.5
1395.63	29142.5
1394.75	29061.3
1393.86	29126.7
1392.97	29409.1
1392.09	29525.2
1391.2	29074.9
1390.31	29613.5
1389.42	29335.2
1388.54	29248.4
1387.65	29260.2
1386.76	29350.8
1385.87	29432.9
1384.98	29607.9
1384.09	29273.6
1383.21	29330.4
1382.32	29530.6
1381.43	29280.8
1380.54	29382.5
1379.65	29346.5
1378.76	29796.7
1377.87	29513.3
1376.98	29581.2
1376.09	29727.7
1375.2	29986.5
1374.31	29178.2
1373.42	30029.4
1372.53	29889.5
1371.64	29752.3
1370.75	30025
1369.86	29666.2
1368.96	29905.1
1368.07	29992.4
1367.18	29945.1
1366.29	30049.3
1365.4	29853.4
1364.51	30120
1363.61	30151.2
1362.72	30238.4
1361.83	30177.1
1360.94	30185.9
1360.04	30351.4
1359.15	30404.9
1358.26	30049.7
1357.36	30100.4
1356.47	30358.2
1355.58	30540.4
1354.68	30356
1353.79	30171.7
1352.9	30250.3
1352	30370.9
1351.11	30401.9
1350.21	30564.3
1349.32	30715.4
1348.42	30821.8
1347.53	31380.7
1346.63	30833.4
1345.74	31241.3
1344.84	31702.1
1343.95	31127.1
1343.05	31813.8
1342.15	31914.3
1341.26	31738.5
1340.36	31791.6
1339.47	31180.8
1338.57	31607.6
1337.67	31175.5
1336.78	31253.7
1335.88	31078.2
1334.98	31122.9
1334.08	30618.8
1333.19	30758.3
1332.29	30730.6
1331.39	30471.8
1330.49	30541.7
1329.6	30853.7
1328.7	30773.1
1327.8	30561.8
1326.9	30987.7
1326	30623.5
1325.1	30073
1324.2	30685
1323.3	30621.3
1322.4	30982.9
1321.51	30810.7
1320.61	30541.3
1319.71	30263.7
1318.81	30580.6
1317.91	30383.6
1317.01	30536.6
1316.1	30764.5
1315.2	30600.9
1314.3	30678.8
1313.4	30543
1312.5	30729
1311.6	30573.9
1310.7	30754.3
1309.8	30582.6
1308.9	30438.6
1307.99	30483.2
1307.09	30583.1
1306.19	30525.1
1305.29	30686
1304.38	30522.8
1303.48	30345.7
1302.58	30484.4
1301.68	30573.2
1300.77	30598.2
1299.87	30460
1298.97	30698.2
1298.06	30418.9
1297.16	30651.5
1296.25	30809.3
1295.35	30397.4
1294.45	30618.8
1293.54	30386.7
1292.64	30591.5
1291.73	30732.5
1290.83	30749.3
1289.92	30445.5
1289.02	30617
1288.11	30332.7
1287.21	30272.2
1286.3	30749.9
1285.39	30526.5
1284.49	30849.5
1283.58	30998.6
1282.68	30447
1281.77	30852.5
1280.86	30576.9
1279.96	30657
1279.05	30508.3
1278.14	30544.3
1277.23	30541.7
1276.33	30607.9
1275.42	30349.1
1274.51	30718.4
1273.6	30729.5
1272.7	30622.2
1271.79	30649.9
1270.88	30295
1269.97	30818
1269.06	30542.9
1268.15	30438.6
1267.24	30565.2
1266.33	30389.4
1265.43	30403.3
1264.52	30513.4
1263.61	30837.8
1262.7	30406.5
1261.79	30766.5
1260.88	30700.7
1259.97	30731
1259.06	30544.4
1258.14	30879.4
1257.23	30992
1256.32	31082.6
1255.41	30542.1
1254.5	30484.6
1253.59	30405.2
1252.68	30852.3
1251.77	30690.6
1250.85	30901.8
1249.94	31145.8
1249.03	31132.1
1248.12	30715.6
1247.2	30707.5
1246.29	30825.3
1245.38	30839
1244.47	30904.8
1243.55	30811.8
1242.64	31028.1
1241.73	30891.2
1240.81	30872.1
1239.9	31271.6
1238.98	30976.1
1238.07	31173
1237.16	30585.2
1236.24	31178.5
1235.33	30741.1
1234.41	30869.6
1233.5	31211.2
1232.58	31208.4
1231.67	30938
1230.75	31284.8
1229.84	31047.2
1228.92	31126.4
1228	30998
1227.09	31025.3
1226.17	31153.6
1225.25	31058
1224.34	31082.6
1223.42	31060.7
1222.5	31502.4
1221.59	31134.3
1220.67	31330.5
1219.75	30976.2
1218.84	31076.9
1217.92	31185.9
1217	30918.9
1216.08	31283.8
1215.16	31308.2
1214.25	31095.8
1213.33	31297.2
1212.41	30913.4
1211.49	31329.7
1210.57	31386.7
1209.65	31212.6
1208.73	31416.4
1207.81	31468
1206.89	30956.8
1205.97	31049.2
1205.05	31201.3
1204.13	31242
1203.21	31002.9
1202.29	30964.8
1201.37	30731.2
1200.45	31114.1
1199.53	31095
1198.61	31244.2
1197.69	31165.4
1196.77	31206
1195.84	31054
1194.92	31276.4
1194	31254.6
1193.08	31314.1
1192.16	31143.2
1191.23	31248.9
1190.31	31026.6
1189.39	31197.2
1188.46	31083.3
1187.54	31310.7
1186.62	31145.4
1185.69	30717.6
1184.77	31150.7
1183.85	30999
1182.92	31080.1
1182	31131.4
1181.08	31058.3
1180.15	31096.1
1179.23	31082.5
1178.3	31363.5
1177.38	30963.3
1176.45	31471.4
1175.53	30920
1174.6	31114.4
1173.68	31160.2
1172.75	30927.9
1171.82	31049.3
1170.9	30908.8
1169.97	31389.2
1169.05	31324.3
1168.12	31218.9
1167.19	31035.3
1166.27	31367
1165.34	31302.1
1164.41	31350.5
1163.48	31245.2
1162.56	31026.7
1161.63	31393.1
1160.7	31403.7
1159.77	31260.8
1158.84	31128.6
1157.92	31322.4
1156.99	31327.6
1156.06	31233.2
1155.13	31383.8
1154.2	31598.9
1153.27	31224.7
1152.34	31060.5
1151.41	31512.2
1150.48	31748.6
1149.55	31304.7
1148.62	31533.1
1147.69	31839.3
1146.76	31954.5
1145.83	31672.1
1144.9	32131.3
1143.97	31910.7
1143.04	31803
1142.11	31402.7
1141.18	31730
1140.25	32102.8
1139.32	31471.8
1138.38	31785.5
1137.45	31584.1
1136.52	31763.5
1135.59	31647.9
1134.65	31494.9
1133.72	31615.3
1132.79	31540
1131.86	31625.5
1130.92	31786
1129.99	31456.2
1129.06	31442.6
1128.12	31348.6
1127.19	31629.5
1126.26	31463.3
1125.32	31757.5
1124.39	31676.9
1123.45	31508.1
1122.52	31556
1121.58	31644
1120.65	31584.9
1119.71	31405.5
1118.78	31327.7
1117.84	31733.7
1116.91	31327.3
1115.97	31474
1115.03	31431
1114.1	31382.7
1113.16	31318.4
1112.23	31075.2
1111.29	31667.6
1110.35	31595.2
1109.42	31472.2
1108.48	31965.5
1107.54	31362.3
1106.6	31274.1
1105.67	31252.5
1104.73	31284.3
1103.79	31635.9
1102.85	31299.8
1101.91	31507.4
1100.98	31134.2
1100.04	31173.9
1099.1	31197.6
1098.16	31343.9
1097.22	31170.6
1096.28	31351.3
1095.34	31255.3
1094.4	31316.2
1093.46	31201.6
1092.52	31411.5
1091.58	31371.3
1090.64	31030.7
1089.7	31657.9
1088.76	31229.6
1087.82	31662.5
1086.88	31486.9
1085.94	31542.3
1085	31608.4
1084.06	31361.2
1083.11	31642.3
1082.17	31511.9
1081.23	31394.8
1080.29	31630.7
1079.35	31266.9
1078.4	31805.1
1077.46	31698.7
1076.52	31274
1075.57	31496.5
1074.63	31642
1073.69	31646.9
1072.74	31506.1
1071.8	31331
1070.86	31412.8
1069.91	31637.6
1068.97	31605.5
1068.02	31872.5
1067.08	31890.7
1066.14	31652.1
1065.19	31908.4
1064.25	31783.6
1063.3	31508.2
1062.36	31703.5
1061.41	31674.1
1060.46	31938.1
1059.52	31718.3
1058.57	31636
1057.63	31876.1
1056.68	31260.1
1055.73	31769.6
1054.79	31375.7
1053.84	31980
1052.89	32058.8
1051.95	31765.4
1051	31495.8
1050.05	31856.9
1049.1	32072.9
1048.16	31666.2
1047.21	31926.9
1046.26	31981.8
1045.31	31686.2
1044.36	31851.8
1043.41	31727.5
1042.46	31740.3
1041.52	31803.1
1040.57	31952.8
1039.62	31765.4
1038.67	31954.6
1037.72	31962
1036.77	31803.7
1035.82	31632.2
1034.87	32031.7
1033.92	31649.8
1032.97	31833.5
1032.02	31985.6
1031.07	31732.7
1030.11	31498.4
1029.16	31802.9
1028.21	31831.3
1027.26	31515.6
1026.31	32232.3
1025.36	31459.7
1024.4	31624.8
1023.45	31648
1022.5	31650.2
1021.55	31392.6
1020.59	31499.8
1019.64	31659.4
1018.69	31732.4
1017.73	31482.9
1016.78	31477.2
1015.83	31542.4
1014.87	31822.4
1013.92	31248.1
1012.97	31805.8
1012.01	31758.2
1011.06	31755.1
1010.1	31699.7
1009.15	31890.4
1008.19	31656.9
1007.24	31606.7
1006.28	31368.2
1005.33	31854.4
1004.37	31673.4
1003.41	31801.2
1002.46	31698.7
1001.5	31452.5
1000.55	31548.8
999.589	31524.8
998.633	31333.7
997.676	31934.2
996.719	31889.3
995.761	31410.8
994.804	31658.5
993.846	31386.5
992.889	31725.4
991.931	31443.1
990.973	31382.7
990.014	31893.6
989.056	31663.6
988.097	32067.3
987.139	31305.4
986.18	31654.3
985.221	31437.5
984.261	31742
983.302	31647.7
982.342	31993.7
981.382	31969.7
980.422	31885.9
979.462	32010.3
978.502	31903.1
977.541	32207.1
976.581	31774.5
975.62	32182.5
974.659	31882.8
973.698	31864
972.736	32115.7
971.775	32180.2
970.813	31813.1
969.851	32301.2
968.889	32279.8
967.927	31834.9
966.964	32408.4
966.002	32407.8
965.039	31867.1
964.076	32043.1
963.113	32232
962.15	32428.6
961.186	32443.6
960.223	32167.9
959.259	32016.9
958.295	32241.9
957.331	32451.3
956.367	32367.7
955.402	32198.6
954.437	32674.9
953.473	32295.9
952.508	32575
951.542	32672.8
950.577	32467.5
949.611	32358.1
948.646	32023.5
947.68	32356.8
946.714	32182.7
945.748	32337.4
944.781	32098.7
943.815	32188.6
942.848	32110.4
941.881	32378.7
940.914	32078.2
939.947	32002.6
938.979	32188.1
938.012	32200.4
937.044	32295.3
936.076	32356.7
935.108	32549.7
934.139	32076.5
933.171	32514.7
932.202	32075.3
931.233	32314.6
930.264	31965.7
929.295	32055.3
928.326	32222.4
927.356	31989.6
926.387	32110.2
925.417	31898.2
924.447	32240.4
923.476	32170.1
922.506	32166.9
921.535	32287.3
920.565	32065.2
919.594	32484.2
918.623	32200.3
917.651	31986
916.68	32119.2
915.708	31771.2
914.737	32231.1
913.765	32119.9
912.792	31653.8
911.82	32113.4
910.848	31776
909.875	32232.9
908.902	32353
907.929	32223.8
906.956	32343.9
905.982	32240.5
905.009	32355.3
904.035	32267.3
903.061	32513.1
902.087	32096.6
901.113	32162.6
900.138	32074.7
899.164	32138.2
898.189	32486.3
897.214	32024
896.239	31879.8
895.263	32245.7
894.288	32432
893.312	31947
892.336	32200
891.36	32481.1
890.384	31986.1
889.408	31854.8
888.431	32458.3
887.454	32204.2
886.478	32433.8
885.5	32095.3
884.523	32567.9
883.546	32784.5
882.568	32372
881.59	32325.2
880.612	32396.1
879.634	32681.6
878.656	32366.5
877.677	32554.8
876.699	32533.6
875.72	32405.1
874.741	32519.2
873.762	32429.1
872.782	32941.4
871.803	32634.3
870.823	32477.8
869.843	32625
868.863	32292.6
867.883	32564.8
866.902	33033.1
865.922	32838.5
864.941	32590.4
863.96	32671.1
862.979	32754.4
861.997	32870.8
861.016	32885.2
860.034	32968.4
859.052	32919.1
858.07	32793.5
857.088	32729
856.105	32863
855.123	32844.4
854.14	32950.3
853.157	33053.7
852.174	32643.4
851.191	32525.6
850.207	32761.2
849.224	33161.9
848.24	32640.1
847.256	32784
846.272	32635.9
845.287	32596.9
844.303	32763.7
843.318	32798.4
842.333	32990.4
841.348	32857.5
840.363	32615.6
839.377	32726.4
838.392	33062.8
837.406	32450.7
836.42	32868.3
835.434	32368
834.447	32899.4
833.461	32708.5
832.474	32722.8
831.487	32661.1
830.5	32518.4
829.513	32570.8
828.525	32610.4
827.538	32693.1
826.55	32469.5
825.562	32415.5
824.574	32283.1
823.586	32459.4
822.597	32461.1
821.609	32518.4
820.62	32957.5
819.631	32312
818.641	32632.1
817.652	32795.5
816.662	32481.3
815.673	32238
814.683	32497.3
813.693	32339.9
812.702	32722.8
811.712	32762.3
810.721	32269.2
809.73	32863.9
808.739	32726.7
807.748	32705.6
806.757	32442.5
805.765	32771.9
804.774	32491.2
803.782	32835.6
802.79	32484.4
801.797	32680
800.805	32860.5
799.812	32476.7
798.819	32405.4
797.826	32598.3
796.833	32635.2
795.84	32820.5
794.846	32837.2
793.853	32753.2
792.859	32536
791.865	32902.3
790.87	32966.7
789.876	32772.1
788.881	32808.9
787.887	32895.9
786.892	32972.8
785.896	32861.3
784.901	33196.9
783.906	33178.3
782.91	33669.4
781.914	33349.5
780.918	33182.8
779.922	33129
778.925	33419
777.929	33608.6
776.932	33577.4
775.935	33320.5
774.938	33098.8
773.94	33275.8
772.943	33638.1
771.945	33469.1
770.947	33352.8
769.949	33269.1
768.951	33067.7
767.952	33209.4
766.954	33305.9
765.955	32906.9
764.956	33496.5
763.957	33237.7
762.957	33351.7
761.958	32912.9
760.958	33071.9
759.958	33313.4
758.958	33492.3
757.958	33333.8
756.957	33395.1
755.957	33244.1
754.956	33238.1
753.955	33524.2
752.954	33685.4
751.952	33796.6
750.951	33663.1
749.949	34255.9
748.947	34374.4
747.945	35066.7
746.943	34391.8
745.941	34722.2
744.938	33529
743.935	33525.3
742.932	33756
741.929	33545.5
740.925	33168.1
739.922	33555.6
738.918	33417.5
737.914	33304.3
736.91	33203.6
735.906	32682.3
734.901	32912.7
733.897	33235.2
732.892	32873.3
731.887	33310.1
730.882	33102.5
729.876	32927.4
728.871	33063.1
727.865	32649.4
726.859	32864.6
725.853	33154.3
724.847	33016.5
723.84	32938.5
722.833	33039.2
721.826	32871.8
720.819	33054.4
719.812	33301.5
718.805	33265.7
717.797	33175.2
716.789	33218.8
715.781	32939.9
714.773	32844.6
713.765	33255.1
712.756	33258.9
711.748	33210.7
710.739	33234.3
709.73	33617.2
708.72	33606.1
707.711	33013
706.701	33259.5
705.691	33164.3
704.681	33319.1
703.671	33369.9
702.661	33460.3
701.65	33718.8
700.64	33564.3
699.629	33305.9
698.618	33428.3
697.606	33348
696.595	33754.7
695.583	33778.1
694.571	33957.3
693.559	33331
692.547	33500.2
691.535	33568.2
690.522	33870.6
689.509	33395.4
688.496	34097.6
687.483	34153
686.47	34154.2
685.456	34473.5
684.442	34301.9
683.429	34584.1
682.414	34540.8
681.4	34891.8
680.386	34671
679.371	34115.2
678.356	34094.2
677.341	33600.2
676.326	33961
675.311	33519
674.295	33345.4
673.279	33944.7
672.263	33232.3
671.247	33383.6
670.231	34002.3
669.214	33457.4
668.198	33434.1
667.181	33555.8
666.164	33561.9
665.146	33310
664.129	33704.4
663.111	33015.2
662.093	33134.4
661.075	33644
660.057	33360.4
659.039	33550.6
658.02	33124.8
657.001	33464.7
655.983	32921.2
654.963	33356.7
653.944	32757
652.925	33356.7
651.905	33095.6
650.885	33067.4
649.865	33377.5
648.845	33158.2
647.824	33272.1
646.804	33050.4
645.783	33375
644.762	33275.8
643.741	33311.3
642.719	33165.6
641.698	33396.9
640.676	33204.8
639.654	33624.3
638.632	33637.7
637.609	33335.6
636.587	33224.4
635.564	33269.6
634.541	33344.1
633.518	33264.6
632.495	33720.3
631.471	33601.7
630.448	33641.9
629.424	33352.5
628.4	33675.9
627.376	33672.1
626.351	33675.7
625.327	33188.8
624.302	33516.9
623.277	33566.8
622.252	33431.4
621.226	33742.2
620.201	33697
619.175	33571.3
618.149	33687
617.123	33887.8
616.097	33603.9
615.07	33841.2
614.044	34017.6
613.017	33746
611.99	34080.5
610.963	33602.1
609.935	34063.1
608.908	33757.6
607.88	33532.4
606.852	33694
605.824	33821.6
604.795	33681.6
603.767	33736.2
602.738	33615.7
601.709	34008
600.68	33802.5
599.65	33854.5
598.621	34168.8
597.591	33774
596.561	33860.1
595.531	33832
594.501	34136.3
593.47	33654.5
592.44	33580.3
591.409	33724.5
590.378	33948.6
589.347	33731.4
588.315	33773.7
587.284	33316.7
586.252	33826.6
585.22	33408.5
584.188	33722.1
583.155	33543.9
582.123	33421.5
581.09	33657.4
580.057	33890.7
579.024	33707.8
577.99	33650.8
576.957	33439
575.923	33437.6
574.889	33644.2
573.855	33497.8
572.821	33288.5
571.786	33125.3
570.752	33498.5
569.717	33791.9
568.682	33114.1
567.647	32929.3
566.611	33840.7
565.576	33542.3
564.54	33444.4
563.504	33713.3
562.467	33461
561.431	33758.7
560.394	33699.4
559.358	33495.4
558.321	33932.8
557.284	33295
556.246	33397.3
555.209	33885.1
554.171	33529.5
553.133	33460.6
552.095	33890.3
551.057	33645.7
550.018	33846.5
548.979	33813.7
547.94	33749.7
546.901	34010.5
545.862	33559.2
544.823	34190.3
543.783	33760.7
542.743	34281
541.703	33969.3
540.663	33708.3
539.622	33827
538.582	33972.1
537.541	33963.4
536.5	33757.7
535.459	33725.1
534.417	34047.7
533.376	34139.8
532.334	34447.8
531.292	34304.6
530.25	34178.3
529.207	33809.8
528.165	34182.4
527.122	34200.1
526.079	33992.4
525.036	34113.1
523.992	34212.2
522.949	33750.6
521.905	34276.1
520.861	33838.7
519.817	34229.8
518.773	34369.5
517.728	34078.3
516.684	33940.4
515.639	33687.6
514.594	33796.2
513.548	33801.9
512.503	33974.9
511.457	34205.3
510.411	33854.7
509.365	33466
508.319	33909
507.273	33874.1
506.226	33581.1
505.179	33460.3
504.132	33334.7
503.085	33810.7
502.037	33608.7
500.99	33650.1
499.942	33760.8
498.894	33518.4
497.846	33378.6
496.797	33546.4
495.749	33463.9
494.7	33462.4
493.651	33501.5
492.602	33407.1
491.552	33534.3
490.503	33335.1
489.453	33626.6
488.403	33513.2
487.353	33235.5
486.303	33700.6
485.252	33808.6
484.201	33614.3
483.15	33465.3
482.099	33687.4
481.048	33552.7
479.996	33256.4
478.945	33138.5
477.893	33360.5
476.841	33606.1
475.788	33362.3
474.736	33527.1
473.683	33418.7
472.63	33398.3
471.577	33686.4
470.524	33832
469.47	33552.8
468.417	33496.7
467.363	33609.1
466.309	33249.4
465.254	33935.7
464.2	33426.7
463.145	33861.4
462.09	33888.2
461.035	33874.8
459.98	33892.2
458.925	33961.6
457.869	33671.1
456.813	33636.4
455.757	34101.2
454.701	33841.6
453.644	33937.1
452.588	33843.2
451.531	33855.8
450.474	33944.1
449.417	33904.6
448.359	33914.9
447.302	33849.4
446.244	34164.5
445.186	34028.2
444.128	34326.6
443.069	34150.1
442.011	34247.6
440.952	33863.5
439.893	33906.7
438.834	33751.7
437.774	33962.5
436.715	34022.2
435.655	34018.2
434.595	34268.9
433.535	33434.8
432.474	34039.2
431.414	33797.1
430.353	33729.5
429.292	33991.8
428.231	33971.3
427.169	33512.7
426.108	34260.1
425.046	33662.7
423.984	33668.1
422.922	33866.6
421.859	34116.8
420.797	34061
419.734	33673.5
418.671	33695.4
417.608	33559.8
416.544	33581.7
415.481	33667.1
414.417	33627.9
413.353	33522.9
412.289	33871.4
411.225	33888.5
410.16	33529.9
409.095	33565.9
408.03	33747.4
406.965	33499.4
405.9	33601
404.834	33719.1
403.768	33703.4
402.702	33795.6
401.636	33878.4
400.57	33665.7
399.503	34081.3
398.436	33718.7
397.37	33834.2
396.302	33668.6
395.235	33512.4
394.167	33904.2
393.1	33495.1
392.032	33657.4
390.964	33770.4
389.895	33778.1
388.827	34005.8
387.758	33814.6
386.689	33777.8
385.62	33872.1
384.55	33970.9
383.481	33632.6
382.411	33839
381.341	33531.2
380.271	33936.1
379.2	33490.6
378.13	33675.8
377.059	33919.3
375.988	33891.9
374.917	33435.1
373.846	33524.5
372.774	33959.2
371.702	33441.9
370.63	33689.9
369.558	33664.9
368.486	33639.9
367.413	33773.4
366.34	33594.7
365.267	33266.8
364.194	33565.7
363.121	33373.1
362.047	33974.6
360.973	33330.3
359.899	33298.4
358.825	33289.8
357.751	33404.6
356.676	33416.9
355.601	33350.1
354.526	33611.3
353.451	33381.8
352.376	33180.2
351.3	33794.6
350.224	33899.8
349.148	33542.5
348.072	33166.9
346.996	34026.9
345.919	33546.8
344.842	33148.2
343.765	33281.2
342.688	33467.6
341.61	33517
340.533	33431.8
339.455	33216.7
338.377	33185
337.299	33424.5
336.22	33638.4
335.141	33576.5
334.063	33556.2
332.984	33429.4
331.904	33668.7
330.825	33349.7
329.745	33278.6
328.665	33591.8
327.585	33442
326.505	33287.5
325.424	33825
324.344	33379.1
323.263	33472.3
322.182	33408.1
321.1	32909.4
320.019	33629
318.937	33373.1
317.855	33657.9
316.773	33432.1
315.691	33199.4
314.608	33521.1
313.526	33170.8
312.443	33337.7
311.359	33444.5
310.276	33295.1
309.193	33152.7
308.109	33245.6
307.025	33273.9
305.941	33281.5
304.856	33457.3
303.772	33462.6
302.687	33009.1
301.602	33224.1
300.517	33058.9
299.431	33494.9
298.346	33078.6
297.26	32975.7
296.174	33167.4
295.088	33264.8
294.001	33247
292.915	32983
291.828	33084.9
290.741	32876.3
289.654	33403.5
288.566	33171.9
287.479	32857.6
286.391	33237.5
285.303	33254.2
284.214	32809.1
283.126	32881
282.037	32950.6
280.948	32951.3
279.859	32809.6
278.77	32957.2
277.681	33134.5
276.591	33121.4
275.501	33050.9
274.411	33108.8
273.321	33114
272.23	33107.8
271.139	32947.9
270.048	33170.9
268.957	32951.5
267.866	33268.3
266.774	33032.9
265.682	33164.1
264.59	33148.7
263.498	32920.4
262.406	33351.2
261.313	33447.9
260.221	33185.3
259.128	33336.9
258.034	33284.8
256.941	33047.6
255.847	33096.2
254.753	33284.2
253.659	33131.7
252.565	33114
251.471	33027.7
250.376	33071.7
249.281	32784.6
248.186	33082
247.091	32849.8
245.995	33270.3
244.9	32898.9
243.804	32901.8
242.708	33007.4
241.611	32857.4
240.515	32810.2
239.418	32924.8
238.321	32556.2
237.224	32727.7
236.126	32584.8
235.029	32624.2
233.931	32961.9
232.833	32721.1
231.735	32908.4
230.636	32931.7
229.538	32716.1
228.439	32844.2
227.34	32808.4
226.241	32688.4
225.141	32800.5
224.042	32857.9
222.942	32631.2
221.842	32525
220.741	32766.5
219.641	32601.2
218.54	32842.6
217.439	32868.2
216.338	32802.9
215.237	32483.4
214.135	32713.3
213.034	32634.4
211.932	32714.5
210.829	32817.1
209.727	32708.8
208.624	32396.5
207.522	32637.5
206.419	32653.9
205.315	33234.6
204.212	32664.2
203.108	32676.1
202.005	32509.1
200.9	32926.3
199.796	32367.7
198.692	32257.4
197.587	32701.6
196.482	32512.1
195.377	32601
194.272	32511.1
193.166	32398.6
192.06	32403.7
190.955	32311.7
189.848	32538.3
188.742	32486.9
187.635	32112.5
186.529	32183.2
185.422	32303.5
184.314	32333.5
183.207	32298
182.099	31964.6
180.992	32087.1
179.883	32123.9
178.775	31869.6
177.667	32215.4
176.558	32049.2
175.449	32112.9
174.34	32131.6
173.231	31965.5
172.121	32123.9
171.011	32268.7
169.901	32154.4
168.791	32260.9
167.681	32002.6
166.57	32280.1
165.46	31808.1
164.349	32276.8
163.237	31881.5
162.126	32023.8
161.014	31833.3
159.902	31856.5
158.79	31877.4
157.678	31637.6
156.565	31991.1
155.453	31713.1
154.34	31761
153.227	31867.2
152.113	31382.9
151	31567.7
149.886	31638
148.772	31531
147.658	31563.1
146.543	31391.1
145.429	31501.7
144.314	31659.4
143.199	31348.4
142.084	31533
140.968	31560.6
139.853	31590.4
138.737	31273
137.621	31473.1
136.504	31077.4
135.388	31062.5
134.271	31331.9
133.154	31325.9
132.037	31237.1
130.919	31081.3
129.802	31428.8
128.684	31196.9
127.566	30835.4
126.448	31214
125.329	30897.3
124.211	30676.9
123.092	31026.3
121.973	30837.2
120.853	31135
119.734	30573.1
118.614	30669.9
117.494	30617.2
116.374	30468.5
115.253	30284.1
114.133	30082
113.012	29480.7
111.891	29629
110.77	28698
109.648	28208.7
108.527	27320.7
107.405	26511.1
106.283	25788.6
105.16	24850.3
104.038	24110.6
102.915	23687.4
101.792	22674.4
100.669	22138
