3201.19	88.4354
3200.6	105.28
3200	134.738
3199.41	113.668
3198.82	75.7675
3198.22	88.382
3197.63	88.3687
3197.03	88.3553
3196.44	109.376
3195.85	134.596
3195.25	113.548
3194.66	100.917
3194.06	88.2886
3193.47	109.293
3192.87	96.6678
3192.28	117.665
3191.68	113.445
3191.09	134.433
3190.49	126.012
3189.9	125.993
3189.3	117.576
3188.71	75.5731
3188.11	117.54
3187.52	134.311
3186.92	104.915
3186.32	104.899
3185.73	100.688
3185.13	104.867
3184.54	117.434
3183.94	109.029
3183.34	109.013
3182.75	150.918
3182.15	150.895
3181.55	121.536
3180.96	83.8052
3180.36	108.93
3179.76	134.048
3179.17	113.086
3178.57	96.3176
3177.97	125.613
3177.38	117.221
3176.78	129.76
3176.18	113
3175.58	104.614
3174.99	54.391
3174.39	100.399
3173.79	96.2011
3173.19	129.643
3172.6	100.353
3172	104.519
3171.4	117.043
3170.8	129.564
3170.2	100.293
3169.6	146.238
3169.01	137.861
3168.41	150.371
3167.81	141.995
3167.21	125.271
3166.61	146.127
3166.01	125.233
3165.41	116.866
3164.81	116.849
3164.22	121.004
3163.62	133.501
3163.02	116.796
3162.42	100.095
3161.82	133.44
3161.22	154.267
3160.62	125.062
3160.02	158.388
3159.42	145.862
3158.82	170.841
3158.22	120.82
3157.62	129.133
3157.02	116.619
3156.42	162.409
3155.82	137.402
3155.22	120.729
3154.62	99.8984
3154.02	137.339
3153.42	91.5457
3152.81	153.94
3152.21	128.957
3151.61	116.46
3151.01	158.029
3150.41	128.899
3149.81	141.351
3149.21	120.546
3148.61	137.152
3148	141.287
3147.4	137.111
3146.8	153.707
3146.2	149.53
3145.6	120.436
3144.99	141.18
3144.39	166.069
3143.79	166.043
3143.19	99.6109
3142.59	116.195
3141.98	149.371
3141.38	128.606
3140.78	116.142
3140.17	136.861
3139.57	132.694
3138.97	182.426
3138.37	161.671
3137.76	120.199
3137.16	128.469
3136.56	182.315
3135.95	145.002
3135.35	161.549
3134.75	128.391
3134.14	124.231
3133.54	144.914
3132.93	149.031
3132.33	140.73
3131.73	128.294
3131.12	144.826
3130.52	144.804
3129.91	124.099
3129.31	140.624
3128.7	161.279
3128.1	165.389
3127.49	152.962
3126.89	165.339
3126.28	148.783
3125.68	157.024
3125.07	140.474
3124.47	156.977
3123.86	115.649
3123.26	185.837
3122.65	169.292
3122.05	111.468
3121.44	127.963
3120.84	160.961
3120.23	127.924
3119.62	160.912
3119.02	140.261
3118.41	152.614
3117.81	103.102
3117.2	127.827
3116.59	148.421
3115.99	169.01
3115.38	140.133
3114.77	173.079
3114.17	152.451
3113.56	173.026
3112.95	160.643
3112.35	197.684
3111.74	160.594
3111.13	148.218
3110.53	164.662
3109.92	164.637
3109.31	168.727
3108.7	185.16
3108.09	181.018
3107.49	172.763
3106.88	160.399
3106.27	172.711
3105.66	139.792
3105.06	180.88
3104.45	164.412
3103.84	205.483
3103.23	147.925
3102.62	135.578
3102.01	172.527
3101.4	180.715
3100.8	176.581
3100.19	197.084
3099.58	176.527
3098.97	160.082
3098.36	196.994
3097.75	192.86
3097.14	188.728
3096.53	151.78
3095.92	213.28
3095.31	151.734
3094.7	147.61
3094.09	200.884
3093.48	196.754
3092.87	176.232
3092.26	147.52
3091.65	172.081
3091.04	163.862
3090.43	159.741
3089.82	180.193
3089.21	192.45
3088.6	159.668
3087.99	245.605
3087.38	200.547
3086.77	171.871
3086.16	196.394
3085.55	188.183
3084.93	155.432
3084.32	188.125
3083.71	155.384
3083.1	216.687
3082.49	200.303
3081.88	171.662
3081.27	212.501
3080.65	212.469
3080.04	192.01
3079.43	228.743
3078.82	257.297
3078.21	187.839
3077.59	208.224
3076.98	204.11
3076.37	220.405
3075.76	155.077
3075.14	212.178
3074.53	232.544
3073.92	216.192
3073.3	191.688
3072.69	232.437
3072.08	203.861
3071.46	187.524
3070.85	199.723
3070.24	191.542
3069.62	179.289
3069.01	228.151
3068.4	244.41
3067.78	199.571
3067.17	219.902
3066.56	187.295
3065.94	211.693
3065.33	199.449
3064.71	203.488
3064.1	191.25
3063.48	227.837
3062.87	215.599
3062.25	219.633
3061.64	170.8
3061.02	223.632
3060.41	235.794
3059.79	191.046
3059.18	235.722
3058.56	211.305
3057.95	203.147
3057.33	227.49
3056.72	231.517
3056.1	158.382
3055.49	251.748
3054.87	219.231
3054.26	227.316
3053.64	202.93
3053.02	247.536
3052.41	243.441
3051.79	251.518
3051.17	239.311
3050.56	247.385
3049.94	218.963
3049.32	222.984
3048.71	210.789
3048.09	226.969
3047.47	230.987
3046.86	243.107
3046.24	247.121
3045.62	299.74
3045.01	230.845
3044.39	247.007
3043.77	206.483
3043.15	242.884
3042.54	234.752
3041.92	230.669
3041.3	246.818
3040.68	254.872
3040.06	254.833
3039.45	246.705
3038.83	266.886
3038.21	238.544
3037.59	254.677
3036.97	254.638
3036.35	254.599
3035.73	258.601
3035.12	254.521
3034.5	201.97
3033.88	278.676
3033.26	205.946
3032.64	246.29
3032.02	274.511
3031.4	234.106
3030.78	246.177
3030.16	246.14
3029.54	254.171
3028.92	266.234
3028.3	274.259
3027.68	290.348
3027.06	270.143
3026.44	245.914
3025.82	282.153
3025.2	282.11
3024.58	225.653
3023.96	282.023
3023.34	269.895
3022.72	269.854
3022.1	253.704
3021.48	249.639
3020.86	289.859
3020.24	269.689
3019.62	225.377
3018.99	301.798
3018.37	289.681
3017.75	257.455
3017.13	253.394
3016.51	249.333
3015.89	269.399
3015.26	293.48
3014.64	269.317
3014.02	333.58
3013.4	253.161
3012.78	273.211
3012.15	321.375
3011.53	257.061
3010.91	265.053
3010.29	265.013
3009.66	256.943
3009.04	280.988
3008.42	280.945
3007.79	288.927
3007.17	260.797
3006.55	272.792
3005.92	272.75
3005.3	268.698
3004.68	260.637
3004.05	288.662
3003.43	288.617
3002.81	296.589
3002.18	308.566
3001.56	272.458
3000.94	300.459
3000.31	284.391
2999.69	284.347
2999.06	276.295
2998.44	292.267
2997.81	248.189
2997.19	256.156
2996.56	276.125
2995.94	288.087
2995.31	328.048
2994.69	271.998
2994.06	287.954
2993.44	331.896
2992.81	271.873
2992.19	287.821
2991.56	291.774
2990.94	287.733
2990.31	303.671
2989.69	299.63
2989.06	347.517
2988.43	299.538
2987.81	311.471
2987.18	311.424
2986.56	291.416
2985.93	335.276
2985.3	259.4
2984.68	307.242
2984.05	355.069
2983.42	323.103
2982.8	323.054
2982.17	255.213
2981.54	291.058
2980.92	314.932
2980.29	314.884
2979.66	322.806
2979.03	342.679
2978.41	342.627
2977.78	282.823
2977.15	322.607
2976.52	310.611
2975.89	330.471
2975.27	346.344
2974.64	330.37
2974.01	270.623
2973.38	378.018
2972.75	326.239
2972.13	338.122
2971.5	334.093
2970.87	345.972
2970.24	330.014
2969.61	302.135
2968.98	314.013
2968.35	349.733
2967.72	325.838
2967.09	341.68
2966.46	385.324
2965.84	345.546
2965.21	333.58
2964.58	353.381
2963.95	349.357
2963.32	369.15
2962.69	365.124
2962.06	305.546
2961.43	361.044
2960.8	353.055
2960.17	364.9
2959.54	325.186
2958.91	360.822
2958.27	360.767
2957.64	380.53
2957.01	392.361
2956.38	404.189
2955.75	423.937
2955.12	388.219
2954.49	348.551
2953.86	360.378
2953.23	407.838
2952.59	364.226
2951.96	403.754
2951.33	387.86
2950.7	379.886
2950.07	360.045
2949.44	391.637
2948.8	359.934
2948.17	348.015
2947.54	367.731
2946.91	407.21
2946.27	430.864
2945.64	367.562
2945.01	375.408
2944.38	367.448
2943.74	351.59
2943.11	387.084
2942.48	390.974
2941.84	446.194
2941.21	367.165
2940.58	339.477
2939.94	430.201
2939.31	355.157
2938.68	386.667
2938.04	366.882
2937.41	370.77
2936.78	382.544
2936.14	406.144
2935.51	413.966
2934.87	413.903
2934.24	461.135
2933.61	409.834
2932.97	397.951
2932.34	425.466
2931.7	374.195
2931.07	393.828
2930.43	456.77
2929.8	405.518
2929.16	436.947
2928.53	381.778
2927.89	385.654
2927.26	413.137
2926.62	436.677
2925.98	389.409
2925.35	369.685
2924.71	357.831
2924.08	432.476
2923.44	408.824
2922.81	404.83
2922.17	424.417
2921.53	404.705
2920.9	495
2920.26	392.796
2919.62	459.501
2918.99	416.236
2918.35	443.654
2917.71	400.405
2917.08	384.643
2916.44	396.357
2915.8	388.448
2915.16	466.85
2914.53	490.313
2913.89	482.394
2913.25	447.028
2912.61	443.038
2911.98	470.41
2911.34	450.74
2910.7	438.914
2910.06	466.274
2909.43	438.778
2908.79	454.379
2908.15	454.308
2907.51	430.743
2906.87	477.659
2906.23	418.866
2905.59	414.887
2904.96	434.39
2904.32	442.149
2903.68	453.817
2903.04	434.189
2902.4	449.766
2901.76	492.711
2901.12	449.627
2900.48	480.831
2899.84	461.213
2899.2	457.234
2898.56	418.089
2897.92	503.974
2897.28	457.022
2896.64	472.573
2896	480.31
2895.36	503.662
2894.72	437.22
2894.08	468.378
2893.44	507.331
2892.8	479.939
2892.16	526.681
2891.52	507.095
2890.88	464.116
2890.24	506.938
2889.59	502.961
2888.95	479.493
2888.31	475.521
2887.67	506.625
2887.03	483.167
2886.39	510.364
2885.74	475.227
2885.1	545.258
2884.46	525.703
2883.82	517.835
2883.18	467.147
2882.53	474.859
2881.89	564.294
2881.25	431.91
2880.61	462.967
2879.96	470.675
2879.32	525.052
2878.68	497.75
2878.04	470.457
2877.39	505.371
2876.75	474.198
2876.11	520.759
2875.46	528.45
2874.82	536.138
2874.18	485.557
2873.53	504.901
2872.89	516.473
2872.24	477.566
2871.6	524.077
2870.96	555.047
2870.31	527.795
2869.67	547.115
2869.02	543.15
2868.38	612.889
2867.73	523.59
2867.09	535.142
2866.44	550.568
2865.8	534.976
2865.15	573.653
2864.51	561.938
2863.86	499.854
2863.22	557.89
2862.57	542.308
2861.93	530.605
2861.28	515.033
2860.64	565.287
2859.99	487.775
2859.35	549.629
2858.7	545.674
2858.05	510.764
2857.41	537.767
2856.76	580.234
2856.11	618.82
2855.47	525.916
2854.82	564.498
2854.17	545.081
2853.53	587.514
2852.88	587.423
2852.23	525.508
2851.59	575.651
2850.94	563.973
2850.29	548.436
2849.64	586.967
2849	552.127
2848.35	555.902
2847.7	563.535
2847.05	571.166
2846.41	563.36
2845.76	567.131
2845.11	605.617
2844.46	543.813
2843.81	582.291
2843.17	593.768
2842.52	562.835
2841.87	601.292
2841.22	624.322
2840.57	570.279
2839.92	608.717
2839.27	558.546
2838.62	539.202
2837.97	631.538
2837.33	569.836
2836.68	592.846
2836.03	581.206
2835.38	611.904
2834.73	615.656
2834.08	634.797
2833.43	600.078
2832.78	557.678
2832.13	565.283
2831.48	472.918
2830.83	622.771
2830.18	572.706
2829.53	557.245
2828.87	580.213
2828.22	599.332
2827.57	622.287
2826.92	591.465
2826.27	545.292
2825.62	598.96
2824.97	598.866
2824.32	664.024
2823.67	564.141
2823.01	613.935
2822.36	613.84
2821.71	621.416
2821.06	605.978
2820.41	632.727
2819.76	575.117
2819.1	624.863
2818.45	582.603
2817.8	643.83
2817.15	613.076
2816.49	674.279
2815.84	609.055
2815.19	631.939
2814.54	670.134
2813.88	604.941
2813.23	623.988
2812.58	620.063
2811.92	627.621
2811.27	612.217
2810.62	696.289
2809.96	642.628
2809.31	619.58
2808.66	585.068
2808	607.917
2807.35	600.177
2806.69	642.128
2806.04	645.849
2805.38	645.749
2804.73	653.289
2804.08	699.025
2803.42	653.085
2802.77	652.983
2802.11	679.608
2801.46	679.502
2800.8	656.495
2800.15	755.615
2799.49	690.631
2798.84	709.599
2798.18	610.312
2797.53	648.356
2796.87	667.321
2796.21	667.217
2795.56	674.737
2794.9	686.066
2794.25	716.446
2793.59	704.904
2792.93	708.604
2792.28	681.829
2791.62	685.531
2790.96	666.385
2790.31	734.813
2789.65	704.244
2788.99	681.298
2788.34	665.969
2787.68	624.011
2787.02	646.74
2786.37	684.676
2785.71	635.128
2785.05	756.712
2784.39	623.524
2783.74	722.263
2783.08	695.545
2782.42	691.636
2781.76	695.327
2781.1	699.018
2780.45	714.103
2779.79	740.576
2779.13	770.838
2778.47	653.022
2777.81	709.861
2777.15	705.954
2776.5	736.203
2775.84	663.997
2775.18	660.099
2774.52	732.065
2773.86	671.271
2773.2	750.796
2772.54	724.139
2771.88	777.096
2771.22	682.222
2770.56	761.695
2769.9	716.109
2769.24	681.902
2768.58	715.885
2767.92	757.432
2767.26	704.302
2766.6	726.908
2765.94	688.94
2765.28	681.263
2764.62	730.351
2763.96	718.886
2763.3	771.736
2762.64	832.134
2761.98	797.968
2761.31	778.937
2760.65	741.008
2759.99	737.112
2759.33	797.469
2758.67	691.535
2758.01	782.106
2757.35	710.207
2756.68	808.301
2756.02	732.644
2755.36	804.272
2754.7	785.27
2754.04	815.345
2753.37	777.476
2752.71	811.316
2752.05	796.098
2751.39	777.111
2750.72	784.533
2750.06	807.037
2749.4	814.452
2748.73	791.705
2748.07	753.887
2747.41	776.382
2746.74	746.114
2746.08	723.391
2745.42	760.949
2744.75	828.626
2744.09	772.008
2743.42	813.306
2742.76	805.649
2742.1	805.523
2741.43	779.052
2740.77	711.197
2740.1	797.62
2739.44	771.162
2738.77	793.609
2738.11	842.372
2737.44	800.88
2736.78	819.552
2736.11	841.976
2735.45	777.954
2734.78	819.167
2734.12	811.524
2733.45	800.127
2732.79	807.514
2732.12	867.472
2731.46	833.544
2730.79	942.282
2730.12	882.078
2729.46	836.905
2728.79	821.764
2728.12	821.635
2727.46	802.751
2726.79	873.886
2726.12	783.749
2725.46	854.865
2724.79	847.233
2724.12	865.842
2723.46	914.425
2722.79	813.111
2722.12	917.885
2721.46	827.84
2720.79	850.182
2720.12	865.027
2719.45	917.309
2718.78	864.756
2718.12	845.905
2717.45	838.288
2716.78	916.733
2716.11	864.213
2715.44	875.299
2714.78	871.422
2714.11	841.37
2713.44	856.193
2712.77	844.844
2712.1	941.891
2711.43	874.475
2710.76	904.23
2710.09	866.729
2709.42	918.887
2708.75	858.987
2708.09	881.257
2707.42	888.986
2706.75	896.716
2706.08	904.448
2705.41	912.18
2704.74	919.914
2704.07	927.649
2703.4	935.385
2702.73	943.122
2702.06	950.861
2701.38	898.516
2700.71	879.736
2700.04	931.777
2699.37	912.998
2698.7	946.388
2698.03	882.909
2697.36	905.119
2696.69	975.736
2696.02	848.98
2695.34	871.185
2694.67	908.272
2694	963.957
2693.33	930.314
2692.66	837.151
2691.99	930.022
2691.31	885.241
2690.64	989.232
2689.97	873.808
2689.3	944.308
2688.62	840.079
2687.95	925.428
2687.28	1047.91
2686.61	984.584
2685.93	884.128
2685.26	987.988
2684.59	976.692
2683.91	1009.96
2683.24	939.26
2682.57	901.993
2681.89	1013.19
2681.22	949.948
2680.55	957.219
2679.87	949.65
2679.2	908.701
2678.52	1027.23
2677.85	993.695
2677.17	1026.9
2676.5	960.022
2675.83	963.577
2675.15	948.604
2674.48	996.618
2673.8	918.671
2673.13	1003.71
2672.45	985.038
2671.78	958.965
2671.1	1025.45
2670.42	947.559
2669.75	1039.93
2669.07	1087.87
2668.4	995.207
2667.72	1083.83
2667.05	980.099
2666.37	1020.62
2665.69	1024.16
2665.02	1020.3
2664.34	1016.44
2663.66	1034.76
2662.99	1053.07
2662.31	960.547
2661.63	1045.35
2660.96	1045.19
2660.28	1059.79
2659.6	1019.01
2658.93	1022.55
2658.25	970.711
2657.57	1033.29
2656.89	1088.48
2656.22	1044.04
2655.54	1047.56
2654.86	1084.27
2654.18	1069.35
2653.5	1036
2652.83	1113.25
2652.15	1043.05
2651.47	1006.03
2650.79	1057.46
2650.11	1075.71
2649.43	1116.06
2648.76	1027.5
2648.08	1067.84
2647.4	1034.53
2646.72	1126.4
2646.04	1071.01
2645.36	1056.12
2644.68	1037.56
2644	1099.93
2643.32	1151.26
2642.64	1066.49
2641.96	1092.06
2641.28	1047.77
2640.6	1095.39
2639.92	1102.57
2639.24	1039.93
2638.56	1072.83
2637.88	1080.01
2637.2	1065.14
2636.52	1142.09
2635.84	1064.81
2635.16	1130.72
2634.47	1170.92
2633.79	1115.68
2633.11	1130.18
2632.43	1074.97
2631.75	1085.81
2631.07	1169.99
2630.39	1103.8
2629.7	1147.62
2629.02	1129.11
2628.34	1114.27
2627.66	1169.07
2626.98	1128.58
2626.29	1172.36
2625.61	1117.23
2624.93	1193.97
2624.25	1113.22
2623.56	1065.44
2622.88	1175.1
2622.2	1112.69
2621.51	1028.34
2620.83	1072.09
2620.15	1170.7
2619.46	1122.96
2618.78	1203.24
2618.1	1115.29
2617.41	1093.18
2616.73	1103.97
2616.04	1129.38
2615.36	1118.24
2614.68	1099.79
2613.99	1223.83
2613.31	1183.46
2612.62	1146.75
2611.94	1215.95
2611.25	1175.59
2610.57	1168.11
2609.88	1113.18
2609.2	1233.42
2608.51	1087.28
2607.83	1134.54
2607.14	1200.01
2606.46	1163.35
2605.77	1068.36
2605.09	1195.8
2604.4	1148.22
2603.71	1220.93
2603.03	1155.14
2602.34	1205.97
2601.66	1183.92
2600.97	1245.65
2600.28	1219.96
2599.6	1179.72
2598.91	1285.11
2598.22	1223.02
2597.54	1186.44
2596.85	1168.05
2596.16	1146.04
2595.47	1229.52
2594.79	1309.34
2594.1	1298.23
2593.41	1247.12
2592.72	1217.84
2592.04	1181.3
2591.35	1301.04
2590.66	1289.93
2589.97	1336.96
2589.28	1224.14
2588.6	1285.69
2587.91	1223.75
2587.22	1274.39
2586.53	1299.6
2585.84	1263.09
2585.15	1291.93
2584.46	1288.09
2583.77	1284.26
2583.09	1193.37
2582.4	1233.08
2581.71	1243.76
2581.02	1156.55
2580.33	1250.62
2579.64	1384.52
2578.95	1337.19
2578.26	1260.89
2577.57	1293.3
2576.88	1217.03
2576.19	1376.18
2575.5	1274.58
2574.81	1259.89
2574.12	1313.99
2573.42	1263.11
2572.73	1295.48
2572.04	1280.8
2571.35	1305.92
2570.66	1305.71
2569.97	1178.93
2569.28	1308.91
2568.59	1312.32
2567.89	1366.33
2567.2	1391.41
2566.51	1311.7
2565.82	1289.81
2565.13	1340.18
2564.43	1303.85
2563.74	1303.64
2563.05	1335.93
2562.36	1306.84
2561.66	1440.18
2560.97	1432.73
2560.28	1353.12
2559.59	1316.83
2558.89	1359.91
2558.2	1229.85
2557.51	1244.08
2556.81	1334.02
2556.12	1333.81
2555.43	1279.53
2554.73	1362.21
2554.04	1340.38
2553.34	1397.81
2552.65	1415.6
2551.96	1325.33
2551.26	1346.73
2550.57	1342.91
2549.87	1375.1
2549.18	1328.09
2548.48	1291.89
2547.79	1388.84
2547.09	1392.21
2546.4	1435.15
2545.7	1380.98
2545.01	1373.57
2544.31	1297.85
2543.62	1423.46
2542.92	1372.91
2542.23	1336.76
2541.53	1343.73
2540.83	1393.81
2540.14	1386.41
2539.44	1382.6
2538.75	1414.69
2538.05	1432.42
2537.35	1360.4
2536.66	1449.9
2535.96	1478.38
2535.26	1399.21
2534.57	1427.69
2533.87	1452.57
2533.17	1359.1
2532.48	1412.67
2531.78	1455.46
2531.08	1476.73
2530.38	1465.75
2529.68	1368.77
2528.99	1372.13
2528.29	1439.97
2527.59	1425.42
2526.89	1389.38
2526.19	1399.9
2525.5	1367.46
2524.8	1367.24
2524.1	1417.12
2523.4	1416.9
2522.7	1430.98
2522	1430.76
2521.3	1391.19
2520.6	1433.87
2519.91	1519.45
2519.21	1487.04
2518.51	1508.24
2517.81	1536.59
2517.11	1443.45
2516.41	1418.21
2515.71	1450.13
2515.01	1410.62
2514.31	1460.38
2513.61	1531.55
2512.91	1449.21
2512.21	1424
2511.51	1512.98
2510.8	1584.09
2510.1	1373.37
2509.4	1494.42
2508.7	1626.13
2508	1444.03
2507.3	1540.05
2506.6	1539.8
2505.9	1489.67
2505.19	1525.06
2504.49	1499.88
2503.79	1556.63
2503.09	1442.42
2502.39	1431.5
2501.69	1570.13
2500.98	1423.93
2500.28	1519.8
2499.58	1391.44
2498.88	1522.87
2498.17	1490.61
2497.47	1554.4
2496.77	1550.59
2496.06	1425.89
2495.36	1447
2494.66	1535.63
2493.95	1517.62
2493.25	1506.71
2492.55	1499.37
2491.84	1509.78
2491.14	1626.75
2490.44	1509.3
2489.73	1505.51
2489.03	1583.37
2488.32	1604.42
2487.62	1604.16
2486.91	1571.97
2486.21	1553.98
2485.5	1564.37
2484.8	1542.84
2484.09	1574.51
2483.39	1567.17
2482.68	1524.38
2481.98	1648.19
2481.27	1552.24
2480.57	1601.6
2479.86	1562.37
2479.16	1576.29
2478.45	1625.62
2477.74	1625.36
2477.04	1494.1
2476.33	1639
2475.63	1585.65
2474.92	1613.71
2474.21	1539.14
2473.51	1637.95
2472.8	1673.06
2472.09	1612.67
2471.39	1601.81
2470.68	1601.55
2469.97	1640.18
2469.26	1646.99
2468.56	1625.52
2467.85	1688.86
2467.14	1653.26
2466.43	1617.68
2465.73	1631.54
2465.02	1617.16
2464.31	1680.44
2463.6	1733.12
2462.89	1644.61
2462.18	1640.82
2461.48	1584.11
2460.77	1506.25
2460.06	1618.87
2459.35	1622.14
2458.64	1755.86
2457.93	1642.77
2457.22	1568.49
2456.51	1730.35
2455.8	1705.41
2455.09	1698.09
2454.38	1726
2453.67	1739.81
2452.96	1672.62
2452.25	1714.6
2451.54	1710.81
2450.83	1773.89
2450.12	1703.22
2449.41	1713.51
2448.7	1751.93
2447.99	1751.65
2447.28	1635.31
2446.57	1768.67
2445.86	1754.32
2445.15	1690.77
2444.43	1722.13
2443.72	1700.77
2443.01	1682.93
2442.3	1710.76
2441.59	1706.97
2440.88	1748.84
2440.16	1787.18
2439.45	1776.36
2438.74	1723.43
2438.03	1719.64
2437.32	1554.45
2436.6	1684.01
2435.89	1834.57
2435.18	1841.29
2434.46	1784.89
2433.75	1703.96
2433.04	1647.6
2432.32	1692.9
2431.61	1710.15
2430.9	1737.91
2430.18	1776.17
2429.47	1730.35
2428.76	1800.11
2428.04	1831.34
2427.33	1764.52
2426.61	1809.75
2425.9	1742.96
2425.19	1746.18
2424.47	1780.88
2423.76	1696.64
2423.04	1664.89
2422.33	1699.59
2421.61	1783.24
2420.9	1796.93
2420.18	1775.67
2419.47	1824.32
2418.75	1831.01
2418.04	1834.21
2417.32	1753.57
2416.6	1795.2
2415.89	1875.23
2415.17	1738.76
2414.46	1801.32
2413.74	1888.29
2413.02	1846.11
2412.31	1821.39
2411.59	1754.81
2410.87	1855.68
2410.16	1879.8
2409.44	1886.47
2408.72	1823.41
2408.01	1819.63
2407.29	1749.63
2406.57	1822.53
2405.85	1763.01
2405.14	1870.71
2404.42	1762.44
2403.7	1870.11
2402.98	1817.58
2402.26	1869.51
2401.55	1876.17
2400.83	1910.67
2400.11	1725.94
2399.39	1983.12
2398.67	1833.22
2397.95	1780.76
2397.23	1936.96
2396.51	1891.44
2395.8	1838.99
2395.08	1880.41
2394.36	1768.9
2393.64	1862.43
2392.92	1914.24
2392.2	1927.83
2391.48	1934.46
2390.76	1889.01
2390.04	1916.48
2389.32	1933.53
2388.6	1940.16
2387.88	1901.67
2387.16	1943
2386.44	1876.78
2385.72	1886.88
2384.99	1865.77
2384.27	1809.99
2383.55	1865.17
2382.83	1954.99
2382.11	1947.75
2381.39	2009.81
2380.67	1971.37
2379.95	1908.7
2379.22	2040.01
2378.5	1894.23
2377.78	1925.09
2377.06	1921.32
2376.33	1962.54
2375.61	1944.92
2374.89	2027.65
2374.17	1951.21
2373.44	1975.11
2372.72	2012.84
2372	2005.6
2371.28	1981.07
2370.55	1921.99
2369.83	1932.05
2369.11	1993.94
2368.38	1948.7
2367.66	1979.48
2366.93	2017.15
2366.21	1996.1
2365.49	2023.41
2364.76	1985.1
2364.04	1988.24
2363.31	2032.78
2362.59	2163.58
2361.86	2052.83
2361.14	1983.5
2360.42	2010.77
2359.69	2048.38
2358.97	2096.32
2358.24	1947.75
2357.51	2023.26
2356.79	2026.38
2356.06	2039.84
2355.34	2015.39
2354.61	2083.96
2353.89	2100.84
2353.16	2017.86
2352.43	2038.19
2351.71	1965.57
2350.98	1996.23
2350.26	2068.18
2349.53	2019.67
2348.8	2015.91
2348.07	1998.38
2347.35	2029.01
2346.62	2035.56
2345.89	2004.29
2345.17	2058.96
2344.44	2055.19
2343.71	2030.81
2342.98	1999.56
2342.26	2030.15
2341.53	2153.47
2340.8	2108.48
2340.07	2118.44
2339.34	2179.89
2338.62	2055.97
2337.89	2213.5
2337.16	2020.99
2336.43	2089.28
2335.7	2068.36
2334.97	2092.03
2334.24	2101.98
2333.51	2153.07
2332.78	2097.87
2332.05	2100.96
2331.33	2117.76
2330.6	2182.51
2329.87	2134.2
2329.14	2123.58
2328.41	2232.82
2327.68	2181.1
2326.95	2180.75
2326.22	2204.36
2325.48	2039.73
2324.75	2066.77
2324.02	2052.75
2323.29	2120.83
2322.56	2123.91
2321.83	2154.34
2321.1	2078.77
2320.37	2112.62
2319.64	2180.64
2318.9	2135.86
2318.17	2111.6
2317.44	2193.24
2316.71	2192.89
2315.98	2148.14
2315.25	2103.4
2314.51	2171.34
2313.78	2201.71
2313.05	2143.33
2312.32	2245.36
2311.58	2176.76
2310.85	2258.27
2310.12	2162.41
2309.38	2165.47
2308.65	2103.74
2307.92	2198.86
2307.18	2324.62
2306.45	2225.41
2305.72	2351.12
2304.98	2204.25
2304.25	2200.48
2303.51	2172.88
2302.78	2209.98
2302.05	2223.24
2301.31	2273.95
2300.58	2304.21
2299.84	2327.66
2299.11	2174.17
2298.37	2245.26
2297.64	2272.1
2296.9	2261.53
2296.17	2301.97
2295.43	2172.41
2294.7	2338.61
2293.96	2270.26
2293.23	2300.47
2292.49	2198.18
2291.75	2194.42
2291.02	2255.2
2290.28	2197.11
2289.55	2220.52
2288.81	2298.23
2288.07	2267.31
2287.34	2321.24
2286.6	2246.22
2285.86	2211.93
2285.12	2360.82
2284.39	2312.95
2283.65	2261.72
2282.91	2224.05
2282.18	2260.98
2281.44	2233.5
2280.7	2236.53
2279.96	2280.21
2279.22	2327.26
2278.49	2276.08
2277.75	2224.91
2277.01	2227.94
2276.27	2403.62
2275.53	2298.3
2274.79	2382.53
2274.05	2375.37
2273.32	2425.74
2272.58	2340.78
2271.84	2306.58
2271.1	2269
2270.36	2373.45
2269.62	2352.78
2268.88	2318.6
2268.14	2355.39
2267.4	2375.28
2266.66	2341.11
2265.92	2347.49
2265.18	2340.35
2264.44	2397.37
2263.7	2349.72
2262.96	2426.97
2262.22	2355.7
2261.48	2301.33
2260.74	2321.2
2259.99	2381.54
2259.25	2398.02
2258.51	2394.25
2257.77	2309.57
2257.03	2369.88
2256.29	2453.76
2255.55	2476.95
2254.8	2375.46
2254.06	2428.98
2253.32	2394.9
2252.58	2283.37
2251.83	2384.02
2251.09	2484.63
2250.35	2484.22
2249.61	2406.41
2248.86	2459.86
2248.12	2375.35
2247.38	2321.14
2246.63	2398.12
2245.89	2343.92
2245.15	2407.42
2244.4	2396.95
2243.66	2430.17
2242.92	2453.3
2242.17	2382.33
2241.43	2381.95
2240.68	2428.58
2239.94	2428.19
2239.19	2417.72
2238.45	2474.4
2237.7	2514.28
2236.96	2352.77
2236.21	2419.5
2235.47	2439.24
2234.72	2401.94
2233.98	2445.15
2233.23	2427.98
2232.49	2400.76
2231.74	2450.66
2231	2544.11
2230.25	2570.51
2229.5	2432.71
2228.76	2455.76
2228.01	2371.62
2227.27	2448.26
2226.52	2585.16
2225.77	2514.42
2225.03	2433.67
2224.28	2433.28
2223.53	2422.84
2222.78	2516.13
2222.04	2458.85
2221.29	2535.38
2220.54	2545
2219.79	2504.46
2219.05	2487.33
2218.3	2527.04
2217.55	2539.99
2216.8	2593.04
2216.05	2502.41
2215.31	2518.71
2214.56	2561.72
2213.81	2531.24
2213.06	2557.54
2212.31	2613.87
2211.56	2473.26
2210.81	2569.64
2210.06	2485.8
2209.31	2618.84
2208.56	2501.67
2207.81	2581.3
2207.07	2597.55
2206.32	2577.12
2205.57	2623.37
2204.82	2576.28
2204.06	2509.21
2203.31	2475.48
2202.56	2618.32
2201.81	2687.84
2201.06	2530.88
2200.31	2663.65
2199.56	2556.69
2198.81	2569.58
2198.06	2619.08
2197.31	2671.89
2196.56	2591.61
2195.8	2461.46
2195.05	2710.49
2194.3	2769.9
2193.55	2619.84
2192.8	2775.64
2192.04	2638.92
2191.29	2708.28
2190.54	2634.74
2189.79	2630.99
2189.03	2716.91
2188.28	2646.73
2187.53	2656.26
2186.78	2596.07
2186.02	2735.05
2185.27	2757.83
2184.52	2677.75
2183.76	2756.93
2183.01	2617.16
2182.25	2659.85
2181.5	2636.2
2180.75	2794.91
2179.99	2767.93
2179.24	2757.54
2178.48	2647.73
2177.73	2587.66
2176.97	2769.43
2176.22	2629.87
2175.46	2715.54
2174.71	2701.85
2173.95	2708.03
2173.2	2770.48
2172.44	2597.93
2171.69	2749.72
2170.93	2745.96
2170.18	2613.19
2169.42	2702.06
2168.67	2850.42
2167.91	2721.01
2167.15	2654.46
2166.4	2693.68
2165.64	2792.38
2164.88	2775.4
2164.13	2771.64
2163.37	2708.43
2162.61	2853.29
2161.86	2770.28
2161.1	2637.77
2160.34	2769.37
2159.58	2735.91
2158.83	2784.96
2158.07	2718.52
2157.31	2836.83
2156.55	2763.8
2155.79	2786.43
2155.04	2769.49
2154.28	2795.41
2153.52	2755.4
2152.76	2705.51
2152	2794.03
2151.24	2770.51
2150.48	2829.35
2149.72	2776.19
2148.96	2765.86
2148.21	2870.75
2147.45	2919.65
2146.69	2817.15
2145.93	2777.2
2145.17	2855.71
2144.41	2921.03
2143.65	2818.59
2142.89	2778.67
2142.13	2778.21
2141.37	2915.82
2140.6	2803.59
2139.84	2868.86
2139.08	2815.82
2138.32	2877.77
2137.56	2772.19
2136.8	2889.96
2136.04	2912.47
2135.28	2806.94
2134.52	2888.54
2133.75	2819.14
2132.99	2900.71
2132.23	2798.53
2131.47	2922.72
2130.71	2918.96
2129.94	2862.74
2129.18	2839.32
2128.42	2937.19
2127.65	2821.99
2126.89	2864.13
2126.13	2896.43
2125.37	2905.78
2124.6	2931.5
2123.84	2911.37
2123.08	2969.83
2122.31	2884.22
2121.55	2975.4
2120.78	2971.64
2120.02	2843.54
2119.26	2987.02
2118.49	3019.24
2117.73	2829.05
2116.96	2812.23
2116.2	2847.74
2115.43	2915.92
2114.67	2951.39
2113.9	2794.04
2113.14	2865.47
2112.37	2969.53
2111.61	2913.52
2110.84	2958.76
2110.08	3003.98
2109.31	2993.7
2108.55	2940.98
2107.78	3100.41
2107.01	3047.69
2106.25	2926.47
2105.48	2890.11
2104.71	2984.22
2103.95	3045.68
2103.18	2927.81
2102.41	2976.22
2101.65	2975.73
2100.88	3079.52
2100.11	3007.33
2099.34	2984.03
2098.58	2973.77
2097.81	2966.77
2097.04	3083.5
2096.27	2959.28
2095.51	3033.66
2094.74	3007.12
2093.97	2964.32
2093.2	3035.41
2092.43	3096.71
2091.66	3122.22
2090.89	3098.95
2090.13	3091.93
2089.36	3019.91
2088.59	3045.41
2087.82	3025.41
2087.05	2959.93
2086.28	3001.67
2085.51	3020.67
2084.74	3059.14
2083.97	3039.15
2083.2	3103.58
2082.43	3021.92
2081.66	3086.33
2080.89	3108.53
2080.12	3101.53
2079.35	3071.83
2078.58	3136.18
2077.81	3164.85
2077.03	3193.51
2076.26	3189.74
2075.49	3163.28
2074.72	3156.28
2073.95	3133.08
2073.18	3203.83
2072.4	3154.72
2071.63	2985.8
2070.86	3072.73
2070.09	3072.22
2069.32	2994.03
2068.54	3158.58
2067.77	3187.18
2067	3274.01
2066.23	3286.41
2065.45	3095.05
2064.68	3113.94
2063.91	2990.57
2063.13	3268.07
2062.36	3060.69
2061.59	3027.87
2060.81	3150.14
2060.04	3104.39
2059.26	3165.25
2058.49	3180.87
2057.72	3115.77
2056.94	3241.16
2056.17	3285.81
2055.39	3178.77
2054.62	3165.34
2053.84	3216.43
2053.07	3325.57
2052.29	3183.12
2051.52	3179.37
2050.74	3130.48
2049.97	3120.29
2049.19	3055.32
2048.41	3219.15
2047.64	3208.96
2046.86	3234.2
2046.09	3243.32
2045.31	3149.4
2044.53	3309.86
2043.76	3164.45
2042.98	3247.61
2042.2	3259.95
2041.43	3278.72
2040.65	3236.35
2039.87	3348.39
2039.09	3296.38
2038.32	3231.53
2037.54	3353.16
2036.76	3159.74
2035.98	3156.01
2035.21	3184.4
2034.43	3244.92
2033.65	3228.32
2032.87	3144.28
2032.09	3352.49
2031.31	3262.03
2030.53	3293.59
2029.76	3321.94
2028.98	3253.99
2028.2	3368.96
2027.42	3355.57
2026.64	3432
2025.86	3306.36
2025.08	3280.16
2024.3	3302.06
2023.52	3291.89
2022.74	3390.7
2021.96	3354.89
2021.18	3463.26
2020.4	3340.96
2019.62	3414.07
2018.84	3397.49
2018.06	3352.11
2017.28	3319.54
2016.49	3306.19
2015.71	3363.24
2014.93	3420.27
2014.15	3378.12
2013.37	3406.34
2012.59	3389.79
2011.8	3481.95
2011.02	3366.29
2010.24	3365.73
2009.46	3397.13
2008.68	3422.13
2007.89	3453.51
2007.11	3315.58
2006.33	3493.88
2005.55	3413.47
2004.76	3393.75
2003.98	3278.27
2003.2	3453.26
2002.41	3481.41
2001.63	3455.3
2000.84	3483.44
2000.06	3482.86
1999.28	3469.53
1998.49	3449.82
1997.71	3516.19
1996.92	3560.23
1996.14	3441.73
1995.36	3504.88
1994.57	3545.72
1993.79	3513.27
1993	3515.88
1992.22	3543.95
1991.43	3473.32
1990.64	3370.88
1989.86	3497.63
1989.07	3595.69
1988.29	3563.28
1987.5	3467.25
1986.72	3600.26
1985.93	3482
1985.14	3379.68
1984.36	3515.81
1983.57	3531.12
1982.78	3463.8
1982	3682.45
1981.21	3580.19
1980.42	3506.54
1979.64	3658.39
1978.85	3622.85
1978.06	3634.95
1977.27	3650.21
1976.49	3532.18
1975.7	3636.31
1974.91	3477.08
1974.12	3616.07
1973.33	3624.98
1972.54	3564.13
1971.76	3722.05
1970.97	3518.56
1970.18	3790.54
1969.39	3631.47
1968.6	3665.72
1967.81	3649.27
1967.02	3661.33
1966.23	3762.05
1965.44	3660.11
1964.65	3710.15
1963.86	3639.9
1963.07	3620.31
1962.28	3641.85
1961.49	3647.57
1960.7	3710.23
1959.91	3573.62
1959.12	3769.07
1958.33	3667.27
1957.54	3600.28
1956.75	3675.53
1955.96	3637
1955.17	3614.28
1954.37	3689.49
1953.58	3594.13
1952.79	3713.52
1952	3725.53
1951.21	3664.93
1950.42	3695.89
1949.62	3726.83
1948.83	3672.57
1948.04	3706.66
1947.25	3671.34
1946.45	3702.27
1945.66	3802.55
1944.87	3631.68
1944.07	3744.54
1943.28	3734.46
1942.49	3781.1
1941.69	3701.71
1940.9	3751.49
1940.11	3826.45
1939.31	3743.94
1938.52	3699.24
1937.72	3736.4
1936.93	3801.87
1936.14	3772.91
1935.34	3762.85
1934.55	3755.93
1933.75	3827.64
1932.96	3698.07
1932.16	3691.16
1931.37	3709.41
1930.57	3765.37
1929.77	3752.17
1928.98	3823.81
1928.18	3681.8
1927.39	3875.92
1926.59	3771.64
1925.79	3758.45
1925	3773.52
1924.2	3892.17
1923.41	3850.72
1922.61	3875.18
1921.81	3771
1921.01	3798.6
1920.22	3823.06
1919.42	3838.1
1918.62	3799.84
1917.83	3811.74
1917.03	3811.1
1916.23	4039.22
1915.43	3910.09
1914.63	3755.94
1913.84	3767.84
1913.04	3917.52
1912.24	3935.65
1911.44	3844.21
1910.64	3702.72
1909.84	3799.11
1909.04	3754.67
1908.24	3960.52
1907.45	3787.82
1906.65	3871.63
1905.85	3827.21
1905.05	3845.32
1904.25	3850.93
1903.45	3897.17
1902.65	4012.13
1901.85	3867.74
1901.05	3879.59
1900.25	3813.36
1899.45	3922.01
1898.64	3911.99
1897.84	4020.59
1897.04	3969.98
1896.24	3791.44
1895.44	3937.45
1894.64	3874.4
1893.84	3933.01
1893.04	3954.18
1892.23	3775.8
1891.43	4015.21
1890.63	4014.53
1889.83	4004.51
1889.03	3854.28
1888.22	3975.13
1887.42	4086.6
1886.62	3945.77
1885.81	3895.29
1885.01	3826.15
1884.21	3912.66
1883.4	3880.89
1882.6	3902.02
1881.8	4010.25
1880.99	4217.99
1880.19	3984.03
1879.39	3986.47
1878.58	3926.73
1877.78	3935.4
1876.97	3872.58
1876.17	4042.84
1875.36	4154.01
1874.56	3997.99
1873.75	4118.45
1872.95	4158.13
1872.14	4045.66
1871.34	4044.98
1870.53	4106.38
1869.73	4074.66
1868.92	4033.64
1868.12	3986.43
1867.31	4081.91
1866.5	4174.27
1865.7	4052.64
1864.89	4030.26
1864.09	3942.79
1863.28	4072.29
1862.47	4158.37
1861.66	4114.3
1860.86	4126
1860.05	4063.37
1859.24	4006.94
1858.44	4161.07
1857.63	4048.94
1856.82	4066.83
1856.01	4044.48
1855.2	4238.72
1854.4	4182.33
1853.59	4076.47
1852.78	4054.14
1851.97	4133.84
1851.16	4250.62
1850.35	4129.36
1849.54	4187.39
1848.74	4066.18
1847.93	4102.57
1847.12	4228.52
1846.31	3999.28
1845.5	4152.99
1844.69	4167.73
1843.88	4259.63
1843.07	4311.38
1842.26	4295.23
1841.45	4168.01
1840.64	4117.96
1839.83	4123.44
1839.02	4159.75
1838.2	4239.21
1837.39	4167.59
1836.58	4228.53
1835.77	4160.03
1834.96	4193.22
1834.15	4100.1
1833.34	4244.17
1832.52	4258.85
1831.71	4258.14
1830.9	4300.52
1830.09	4244.39
1829.28	4299.07
1828.46	4239.89
1827.65	4214.56
1826.84	4235.38
1826.02	4382.29
1825.21	4178.61
1824.4	4294.73
1823.59	4321.67
1822.77	4247.19
1821.96	4246.47
1821.14	4356.36
1820.33	4208.18
1819.52	4262.75
1818.7	4160.71
1817.89	4350.35
1817.07	4288.23
1816.26	4318.2
1815.44	4360.43
1814.63	4304.47
1813.81	4276.14
1813	4241.68
1812.18	4449.49
1811.37	4295.44
1810.55	4187.42
1809.74	4266.4
1808.92	4474.07
1808.11	4243.52
1807.29	4227.49
1806.47	4288.03
1805.66	4317.93
1804.84	4332.51
1804.02	4304.23
1803.21	4361.66
1802.39	4348.69
1801.57	4305.12
1800.76	4362.52
1799.94	4517.78
1799.12	4357.99
1798.3	4289.98
1797.49	4307.6
1796.67	4361.89
1795.85	4428.39
1795.03	4497.93
1794.21	4344.41
1793.4	4533.06
1792.58	4471.22
1791.76	4446.03
1790.94	4549.09
1790.12	4465.9
1789.3	4336.96
1788.48	4537.63
1787.66	4308.04
1786.84	4520.85
1786.02	4474.33
1785.2	4305.86
1784.38	4344.77
1783.56	4472.07
1782.74	4456.07
1781.92	4449.23
1781.1	4469.8
1780.28	4450.77
1779.46	4474.38
1778.64	4525.4
1777.82	4439.38
1777	4350.34
1776.18	4492.67
1775.35	4564.95
1774.53	4457.68
1773.71	4487.35
1772.89	4629.55
1772.07	4488.87
1771.25	4485.07
1770.42	4484.32
1769.6	4441
1768.78	4522.31
1767.96	4488.12
1767.13	4590.66
1766.31	4492.68
1765.49	4482.81
1764.66	4360.58
1763.84	4478.25
1763.02	4495.71
1762.19	4607.25
1761.37	4500.26
1760.54	4611.76
1759.72	4583.67
1758.9	4561.67
1758.07	4600.32
1757.25	4575.28
1756.42	4601.79
1755.6	4622.23
1754.77	4609.33
1753.95	4529.77
1753.12	4541.12
1752.3	4555.5
1751.47	4524.44
1750.65	4596.34
1749.82	4734.83
1748.99	4643.22
1748.17	4597.04
1747.34	4538.77
1746.52	4695.32
1745.69	4748.97
1744.86	4693.72
1744.04	4602.22
1743.21	4492.6
1742.38	4642.98
1741.55	4569.65
1740.73	4583.99
1739.9	4628.53
1739.07	4627.75
1738.24	4648.1
1737.42	4746.97
1736.59	4746.16
1735.76	4603.48
1734.93	4696.26
1734.1	4656.24
1733.27	4549.85
1732.45	4711.97
1731.62	4659.9
1730.79	4650.06
1729.96	4570.88
1729.13	4564.08
1728.3	4759.22
1727.47	4601.71
1726.64	4531.63
1725.81	4687.51
1724.98	4608.4
1724.15	4679.9
1723.32	4697.17
1722.49	4783.68
1721.66	4867.14
1720.83	4664.68
1720	4733.1
1719.17	4651.07
1718.34	4689.38
1717.5	4655.5
1716.67	4793.03
1715.84	4708.04
1715.01	4644.12
1714.18	4658.35
1713.35	4633.52
1712.51	4843.04
1711.68	4749.1
1710.85	4769.32
1710.02	4807.55
1709.18	4839.75
1708.35	4766.89
1707.52	4784.09
1706.68	4933.31
1705.85	4653.45
1705.02	4787.65
1704.18	4639.87
1703.35	4863.99
1702.52	4605.31
1701.68	4856.34
1700.85	4762.6
1700.01	4758.8
1699.18	4680.08
1698.35	4790.13
1697.51	4810.28
1696.68	4821.44
1695.84	4841.58
1695.01	4876.68
1694.17	4899.8
1693.34	4824.15
1692.5	4868.21
1691.66	4726.78
1690.83	4938.34
1689.99	4850.78
1689.16	4900.78
1688.32	4696.66
1687.48	4803.46
1686.65	4844.49
1685.81	4873.54
1684.97	4735.29
1684.14	4794.22
1683.3	4739.65
1682.46	4861.27
1681.63	4875.37
1680.79	4928.27
1679.95	4861.77
1679.11	4771.42
1678.27	4892.93
1677.44	4799.63
1676.6	4947.94
1675.76	4920.26
1674.92	4943.27
1674.08	4897.71
1673.24	4855.15
1672.41	4907.96
1671.57	4802.85
1670.73	4921.19
1669.89	5039.49
1669.05	4889.73
1668.21	4927.61
1667.37	4950.58
1666.53	4967.6
1665.69	4996.51
1664.85	5028.39
1664.01	4965.06
1663.17	4800.62
1662.33	4975.26
1661.49	4929.81
1660.64	4896.27
1659.8	4972.72
1658.96	4980.78
1658.12	5211.7
1657.28	4878.08
1656.44	4954.47
1655.6	5004.11
1654.75	5009.2
1653.91	5073.66
1653.07	5096.54
1652.23	5057.09
1651.38	5017.65
1650.54	4966.36
1649.7	5010.01
1648.86	5112.95
1648.01	4954.92
1647.17	4992.62
1646.33	5051.05
1645.48	5044.26
1644.64	5114.52
1643.8	5140.31
1642.95	4940.96
1642.11	5061.55
1641.26	5185.06
1640.42	5000.61
1639.57	5115.2
1638.73	5123.21
1637.88	5036.52
1637.04	5307.85
1636.19	5120.58
1635.35	5190.69
1634.5	5109.96
1633.66	4961.26
1632.81	5137.78
1631.97	5036.41
1631.12	5177.39
1630.28	5149.92
1629.43	5172.67
1628.58	5103.85
1627.74	5032.11
1626.89	5199.54
1626.04	5166.18
1625.2	5200.72
1624.35	5114.25
1623.5	5222.55
1622.65	5206.9
1621.81	5141.12
1620.96	5160.89
1620.11	5233.72
1619.26	5173.86
1618.41	5228.98
1617.57	5010
1616.72	5247.82
1615.87	5264.6
1615.02	5213.62
1614.17	5077.26
1613.32	5282.51
1612.47	5275.71
1611.62	5154.13
1610.77	5303.34
1609.92	5102.34
1609.07	5180.9
1608.22	5147.66
1607.37	5223.24
1606.52	5278.22
1605.67	5118.55
1604.82	5279.35
1603.97	5316.65
1603.12	5215.83
1602.27	5244.32
1601.42	5122.99
1600.57	5266.02
1599.72	5309.17
1598.87	5293.58
1598.01	5163.51
1597.16	5156.75
1596.31	5194.02
1595.46	5298.75
1594.61	5206.91
1593.75	5223.61
1592.9	5222.72
1592.05	5236.48
1591.2	5235.58
1590.34	5340.2
1589.49	5304.12
1588.64	5259.26
1587.78	5220.28
1586.93	5318.97
1586.08	5306.34
1585.22	5381.56
1584.37	5298.67
1583.51	5195.31
1582.66	5410.98
1581.81	5295.94
1580.95	5186.79
1580.1	5431.59
1579.24	5146.99
1578.39	5204.59
1577.53	5291.4
1576.68	5270.03
1575.82	5248.67
1574.96	5367.57
1574.11	5264.4
1573.25	5289.78
1572.4	5356.04
1571.54	5261.69
1570.68	5278.3
1569.83	5289.07
1568.97	5343.61
1568.11	5401.05
1567.26	5417.63
1566.4	5413.78
1565.54	5337.02
1564.69	5493.57
1563.83	5524.69
1562.97	5453.79
1562.11	5505.31
1561.26	5326.61
1560.4	5471.37
1559.54	5330.61
1558.68	5405.42
1557.82	5637.44
1556.96	5537.48
1556.1	5492.87
1555.25	5340.58
1554.39	5351.31
1553.53	5399.85
1552.67	5422.19
1551.81	5403.81
1550.95	5490.11
1550.09	5401.95
1549.23	5517.29
1548.37	5379.75
1547.51	5370.1
1546.65	5488.3
1545.79	5464.12
1544.93	5367.33
1544.07	5392.54
1543.2	5443.88
1542.34	5350.05
1541.48	5346.23
1540.62	5374.32
1539.76	5521.37
1538.9	5639.36
1538.03	5542.67
1537.17	5428.62
1536.31	5468.28
1535.45	5464.44
1534.59	5512.77
1533.72	5395.91
1532.86	5563.03
1532	5582.35
1531.13	5520.56
1530.27	5487.76
1529.41	5454.96
1528.54	5384.55
1527.68	5577.54
1526.82	5452.14
1525.95	5529.33
1525.09	5473.41
1524.22	5593.95
1523.36	5569.85
1522.49	5586.24
1521.63	5475.42
1520.76	5529.4
1519.9	5476.42
1519.03	5507.26
1518.17	5569.87
1517.3	5612.24
1516.44	5634.37
1515.57	5399.52
1514.71	5470.76
1513.84	5640.12
1512.97	5517.94
1512.11	5641.06
1511.24	5446.79
1510.37	5480.47
1509.51	5502.6
1508.64	5573.73
1507.77	5636.2
1506.91	5505.51
1506.04	5412.34
1505.17	5584.29
1504.3	5445.04
1503.43	5576.61
1502.57	5495.01
1501.7	5574.68
1500.83	5449.92
1499.96	5682.14
1499.09	5614.97
1498.22	5547.81
1497.35	5561.24
1496.49	5632.19
1495.62	5467.29
1494.75	5480.72
1493.88	5586.15
1493.01	5470.21
1492.14	5638.83
1491.27	5422.34
1490.4	5470.25
1489.53	5595.69
1488.66	5629.19
1487.79	5539.2
1486.92	5483.69
1486.04	5574.6
1485.17	5544.94
1484.3	5518.15
1483.43	5531.55
1482.56	5519.12
1481.69	5498.09
1480.82	5434.05
1479.94	5596.53
1479.07	5526.77
1478.2	5663.38
1477.33	5544.92
1476.45	5575.47
1475.58	5611.75
1474.71	5682.38
1473.84	5498.13
1472.96	5491.45
1472.09	5639.36
1471.22	5632.66
1470.34	5577.31
1469.47	5619.26
1468.59	5669.78
1467.72	5551.54
1466.85	5690.7
1465.97	5678.28
1465.1	5685.87
1464.22	5581.99
1463.35	5635.32
1462.47	5571.49
1461.6	5567.67
1460.72	5598.12
1459.85	5659.98
1458.97	5610.46
1458.1	5660.87
1457.22	5734.1
1456.34	5627.52
1455.47	5723.55
1454.59	5711.15
1453.71	5658.82
1452.84	5677.81
1451.96	5588.43
1451.08	5695.79
1450.21	5600.75
1449.33	5571.28
1448.45	5633
1447.58	5731.73
1446.7	5827.58
1445.82	5763.92
1444.94	5782.85
1444.06	5591.11
1443.18	5766.61
1442.31	5697.31
1441.43	5593.89
1440.55	5794.91
1439.67	5640.31
1438.79	5554.01
1437.91	5743.55
1437.03	5608.94
1436.15	5735.88
1435.27	5695.1
1434.39	5728.21
1433.51	5602.21
1432.63	5623.96
1431.75	5770.66
1430.87	5704.36
1429.99	5808.41
1429.11	5730.76
1428.23	5590.71
1427.35	5825.24
1426.47	5622.81
1425.59	5610.49
1424.7	5745.64
1423.82	5787.17
1422.94	5857.04
1422.06	5756.82
1421.18	5673.63
1420.29	5709.48
1419.41	5782.15
1418.53	5724.5
1417.65	5729.17
1416.76	5807.45
1415.88	5829.09
1415	5646.93
1414.11	5807.26
1413.23	5724.19
1412.35	5791.09
1411.46	5674.12
1410.58	5825.85
1409.7	5768.28
1408.81	5770.11
1407.93	5520.36
1407.04	5607.01
1406.16	5614.51
1405.27	5777.4
1404.39	5646.46
1403.5	5693.49
1402.62	5907.1
1401.73	5891.95
1400.85	5831.65
1399.96	5833.46
1399.07	5747.79
1398.19	5755.26
1397.3	5655.53
1396.41	5778.64
1395.53	5746.61
1394.64	5903.49
1393.75	5778.44
1392.87	5681.61
1391.98	5759.52
1391.09	5750.07
1390.2	5884.27
1389.32	5784.68
1388.43	5783.67
1387.54	5864.31
1386.65	5778.84
1385.76	5887.6
1384.88	5824.67
1383.99	5705.49
1383.1	5873.27
1382.21	6021.3
1381.32	5952.77
1380.43	5943.3
1379.54	5790.47
1378.65	5929.98
1377.76	5813.74
1376.87	5854.87
1375.98	5800.48
1375.09	5894.96
1374.2	6028.71
1373.31	5895.71
1372.42	5900.3
1371.53	6101.34
1370.64	5856.15
1369.75	5961.74
1368.86	5966.31
1367.97	5886.74
1367.07	6034.33
1366.18	6072.53
1365.29	6012.61
1364.4	6182.52
1363.51	5850.79
1362.61	5903
1361.72	5966.4
1360.83	6113.79
1359.94	6101.52
1359.04	6134.05
1358.15	5959.43
1357.26	5994.78
1356.36	5876.21
1355.47	6020.66
1354.58	6033.6
1353.68	5901.1
1352.79	6017.51
1351.89	6228.94
1351	5906.39
1350.11	6053.49
1349.21	6010.51
1348.32	6051.37
1347.42	6050.32
1346.53	6024.12
1345.63	6000.73
1344.73	6122.53
1343.84	6093.54
1342.94	6128.76
1342.05	5923.99
1341.15	5875.53
1340.26	6080.92
1339.36	6110.53
1338.46	6011.87
1337.57	6013.61
1336.67	6221.62
1335.77	5888.88
1334.87	6119.13
1333.98	6123.63
1333.08	6019.5
1332.18	5971.1
1331.28	6151.05
1330.39	6058.1
1329.49	6037.55
1328.59	6069.9
1327.69	6230.22
1326.79	6059.43
1325.89	6214.14
1325	5976.65
1324.1	6106.3
1323.2	6052.41
1322.3	6034.67
1321.4	6128.11
1320.5	6093.69
1319.6	6062.06
1318.7	6163.78
1317.8	6123.82
1316.9	6064.43
1316	6038.39
1315.1	6223.31
1314.2	5994.64
1313.29	6074.06
1312.39	6042.48
1311.49	6141.28
1310.59	5962.71
1309.69	6091.99
1308.79	6004.98
1307.89	5984.53
1306.98	5922.51
1306.08	5921.47
1305.18	6067.27
1304.28	6052.35
1303.37	6081.76
1302.47	5817.64
1301.57	6018.72
1300.66	6106.24
1299.76	6085.8
1298.86	6007.25
1297.95	6100.26
1297.05	6038.34
1296.15	6197.69
1295.24	6099.82
1294.34	6214.86
1293.43	6072.8
1292.53	6162.94
1291.62	6128.7
1290.72	6072.37
1289.81	5988.44
1288.91	6114.43
1288	6223.81
1287.1	6164.74
1286.19	6180.22
1285.29	6027.35
1284.38	6023.53
1283.47	6072.13
1282.57	6156.57
1281.66	6133.43
1280.75	6126.84
1279.85	6043.06
1278.94	6033.73
1278.03	6153.93
1277.13	6078.45
1276.22	6011.27
1275.31	6087.34
1274.4	6078
1273.5	5975.06
1272.59	5960.24
1271.68	5983.97
1270.77	6112.26
1269.86	6116.69
1268.95	6077.1
1268.04	6067.78
1267.14	5997.97
1266.23	6040.91
1265.32	6114.07
1264.41	6129.49
1263.5	5949.78
1262.59	5935
1261.68	6211.42
1260.77	5971.36
1259.86	5975.81
1258.95	6092.82
1258.04	5984.69
1257.13	6027.55
1256.21	6018.26
1255.3	6058.36
1254.39	6109.41
1253.48	6135.77
1252.57	6153.89
1251.66	6174.74
1250.75	6061.26
1249.83	6041
1248.92	5924.84
1248.01	6145.74
1247.1	6122.74
1246.18	6102.49
1245.27	6227.39
1244.36	5941.53
1243.44	6154.02
1242.53	5969.55
1241.62	6083.44
1240.7	6169.92
1239.79	5977.34
1238.88	6099.37
1237.96	6010.79
1237.05	6017.93
1236.13	5923.92
1235.22	6122.41
1234.3	6031.15
1233.39	6062.87
1232.47	6135.56
1231.56	5894.13
1230.64	6029.63
1229.73	6001.26
1228.81	6065.72
1227.89	6108.32
1226.98	6085.42
1226.06	5934.28
1225.15	5949.6
1224.23	5973.1
1223.31	6111.12
1222.4	5962.82
1221.48	6005.38
1220.56	6126.97
1219.64	6196.74
1218.73	6059.42
1217.81	6112.83
1216.89	5833.95
1215.97	6012.64
1215.05	6074.2
1214.14	6059.52
1213.22	6142.82
1212.3	6136.3
1211.38	6023.67
1210.46	5987.24
1209.54	6122.17
1208.62	5968.81
1207.7	5962.32
1206.78	6012.92
1205.86	6169.49
1204.94	5997.21
1204.02	6050.49
1203.1	5946.19
1202.18	6102.67
1201.26	6058.14
1200.34	5945.76
1199.42	5855.13
1198.5	5892.09
1197.58	5896.48
1196.66	5944.27
1195.73	6086.99
1194.81	5896.07
1193.89	5951.97
1192.97	5769.27
1192.05	6074.56
1191.12	6068.06
1190.2	5958.6
1189.28	6027.99
1188.35	5994.42
1187.43	5960.86
1186.51	5981.47
1185.59	5966.87
1184.66	5971.23
1183.74	6129.85
1182.81	6085.47
1181.89	5930.19
1180.97	5980.54
1180.04	6020.04
1179.12	6143.36
1178.19	5917.89
1177.27	6143.89
1176.34	5937.41
1175.42	5949.87
1174.49	6094.7
1173.57	5950.47
1172.64	5965.62
1171.71	5967.26
1170.79	6241.57
1169.86	6167.59
1168.94	6109.82
1168.01	6289.52
1167.08	6156.22
1166.16	5960.93
1165.23	6132.47
1164.3	6196.09
1163.37	5833.75
1162.45	5989.05
1161.52	6098.48
1160.59	6105.48
1159.66	6131.34
1158.73	6097.93
1157.81	5964.9
1156.88	6251.94
1155.95	6059.7
1155.02	6257.8
1154.09	6057.55
1153.16	6094.14
1152.23	6171.08
1151.3	6196.88
1150.37	6128.55
1149.44	6022.61
1148.51	5954.33
1147.58	6041.97
1146.65	6191.39
1145.72	6128.49
1144.79	6052.19
1143.86	6129.01
1142.93	6248.76
1142	5898.62
1141.07	5962
1140.14	6132.71
1139.2	5919.63
1138.27	6098.34
1137.34	6022.15
1136.41	6243.69
1135.48	6239.9
1134.54	6107.42
1133.61	6176.03
1132.68	6051.65
1131.75	6141.68
1130.81	6070.93
1129.88	6104.68
1128.95	6173.23
1128.01	6279.24
1127.08	6181.74
1126.14	6135.14
1125.21	6147.43
1124.28	6333.65
1123.34	6198.76
1122.41	5956.92
1121.47	6132.37
1120.54	6230.21
1119.6	6124.84
1118.67	6193.25
1117.73	6071.89
1116.8	5998.67
1115.86	6085.76
1114.92	6012.56
1113.99	6211.78
1113.05	5932.99
1112.11	6124.15
1111.18	5992.27
1110.24	6084.61
1109.3	6136.89
1108.37	6029.09
1107.43	6140.04
1106.49	6016.28
1105.55	6020.54
1104.62	6155.43
1103.68	5994.41
1102.74	5985.35
1101.8	6090.86
1100.86	6156.38
1099.93	6078.04
1098.99	5989.08
1098.05	6049.25
1097.11	6130.7
1096.17	6118.96
1095.23	6064.65
1094.29	5986.41
1093.35	6078.45
1092.41	6199.72
1091.47	6137.45
1090.53	6123.06
1089.59	6010.33
1088.65	6227.2
1087.71	6143.71
1086.77	6068.22
1085.83	6077.77
1084.88	6079.34
1083.94	5903
1083	5986.91
1082.06	6269.87
1081.12	6088.28
1080.18	6161.49
1079.23	6033.05
1078.29	6167.26
1077.35	6025.59
1076.41	6130.59
1075.46	5983.68
1074.52	5892.49
1073.58	6047.8
1072.63	6240.15
1071.69	6207.25
1070.75	6216.74
1069.8	6112.34
1068.86	6058.3
1067.91	5964.56
1066.97	6175.25
1066.02	6078.87
1065.08	6210.09
1064.13	6227.5
1063.19	6099.43
1062.24	6040.16
1061.3	6279.69
1060.35	6088.23
1059.41	6105.65
1058.46	6096.63
1057.51	6182.73
1056.57	5975.57
1055.62	6143.55
1054.67	6221.67
1053.73	6236.4
1052.78	6179.85
1051.83	6331.83
1050.89	6011.4
1049.94	6208.21
1048.99	6143.79
1048.04	6132.14
1047.09	6120.49
1046.15	5937.48
1045.2	6147.3
1044.25	5943.27
1043.3	6116.12
1042.35	6259.93
1041.4	5850.52
1040.45	6178.69
1039.5	6303.98
1038.55	6055.37
1037.6	6175.37
1036.66	6158.48
1035.7	6086.33
1034.75	6177.32
1033.8	6099.94
1032.85	6161.96
1031.9	6208.19
1030.95	6138.73
1030	6221.74
1029.05	6060.32
1028.1	6216.89
1027.15	6210.52
1026.19	6196.28
1025.24	6182.04
1024.29	6186.18
1023.34	6132.57
1022.39	6113.1
1021.43	6085.76
1020.48	6103.04
1019.53	6073.09
1018.57	6155.94
1017.62	6141.72
1016.67	6106.54
1015.71	6422.64
1014.76	6015.24
1013.81	6252.63
1012.85	6199.11
1011.9	6140.37
1010.94	6050.21
1009.99	6185.3
1009.03	6262.74
1008.08	6091.46
1007.12	6187.21
1006.17	6196.57
1005.21	6187.61
1004.26	6126.34
1003.3	6099.09
1002.34	6181.67
1001.39	6201.48
1000.43	6022.61
999.476	5987.56
998.519	6096.23
997.562	6032.44
996.605	6185.47
995.648	6153.02
994.69	6214.59
993.733	6176.92
992.775	6081.85
991.817	6065.1
990.859	6084.88
989.901	6021.18
988.942	6134.87
987.983	6146.81
987.025	6130.06
986.066	6147.21
985.107	6234.72
984.147	6092.88
983.188	6141.29
982.228	6187.08
981.268	6019.27
980.308	6221.32
979.348	6228.01
978.388	6234.7
977.427	6137.28
976.466	6112.76
975.506	6101.25
974.545	6199.01
973.583	6112.07
972.622	6147.37
971.66	6185.27
970.699	6334.93
969.737	6224.63
968.775	6137.76
967.812	6045.72
966.85	6239.46
965.887	6188.99
964.925	6076.22
963.962	6277.63
962.999	6190.85
962.035	6244.23
961.072	6297.6
960.108	6280.9
959.144	6199.36
958.18	6104.89
957.216	6212.69
956.252	6198.61
955.287	6290.81
954.323	6180.83
953.358	6301.5
952.393	6217.47
951.428	6283.69
950.462	6272.2
949.497	6304.73
948.531	6174.16
947.565	6338.7
946.599	6109.83
945.633	6310.55
944.666	6332.69
943.7	6132.4
942.733	6123.54
941.766	6215.51
940.799	6126.5
939.832	6148.66
938.864	6199.23
937.897	6169.7
936.929	6246.08
935.961	6048.67
934.993	6132.79
934.024	6193.65
933.056	6226.09
932.087	6243.04
931.118	6058.7
930.149	6155.65
929.18	6182.91
928.211	6264.33
927.241	6224.52
926.271	6308.47
925.302	6227.43
924.331	6373.2
923.361	6196.84
922.391	6041.15
921.42	6174
920.449	6198.64
919.478	6318.54
918.507	6258.19
917.536	6133.51
916.565	6134.98
915.593	6131.3
914.621	6248.53
913.649	6273.12
912.677	6289.99
911.705	6324.85
910.732	6215.74
909.759	6086.11
908.786	6105.57
907.813	6168.7
906.84	6216.39
905.867	6230.68
904.893	6116.57
903.919	6053.85
902.945	6247.84
901.971	6215.92
900.997	6155.78
900.023	6167.49
899.048	6412.62
898.073	6293.49
897.098	6382.1
896.123	6304.04
895.148	6102.97
894.172	6160.81
893.196	6323.68
892.221	6204.69
891.244	6449.46
890.268	6269.03
889.292	6173.17
888.315	6184.85
887.339	6206.77
886.362	6287.53
885.384	6288.96
884.407	6282.7
883.43	6204.84
882.452	6306
881.474	6251.17
880.496	6347.18
879.518	6325.58
878.54	6199.23
877.561	6251.76
876.583	6128.01
875.604	6343.99
874.625	6266.24
873.645	6540.83
872.666	6309.92
871.686	6492.52
870.707	6325.49
869.727	6171.28
868.747	6277.29
867.766	6424.07
866.786	6308.16
865.805	6332.52
864.824	6308.43
863.843	6427.06
862.862	6374.94
861.881	6493.52
860.899	6265.65
859.917	6346.01
858.936	6446.7
857.953	6239.34
856.971	6446.91
855.989	6496.64
855.006	6304.64
854.023	6362.01
853.04	6411.72
852.057	6319.01
851.074	6394.14
850.09	6273.51
849.107	6501.11
848.123	6482.14
847.139	6366.64
846.155	6395.97
845.17	6488.77
844.186	6479.98
843.201	6506.73
842.216	6294.87
841.231	6341.95
840.246	6338.26
839.26	6443.66
838.275	6318.21
837.289	6279.02
836.303	6442.69
835.317	6469.4
834.33	6371.92
833.344	6299.81
832.357	6349.33
831.37	6335.52
830.383	6428.08
829.396	6201.54
828.408	6324.47
827.421	6146.13
826.433	6182.97
825.445	6356.45
824.457	6428.67
823.468	6220.08
822.48	6153.19
821.491	6321.49
820.502	6279.89
819.513	6175.12
818.524	6282.66
817.535	6311.84
816.545	6293.01
815.555	6256.51
814.565	6298.3
813.575	6388.05
812.585	6202.61
811.594	6211.57
810.604	6334.1
809.613	6244.64
808.622	6306.57
807.631	6242.37
806.639	6354.71
805.648	6265.31
804.656	6307.02
803.664	6260.51
802.672	6294.65
801.68	6127.22
800.687	6257.09
799.694	6384.4
798.702	6290.07
797.709	6291.44
796.715	6282.74
795.722	6236.3
794.728	6288.01
793.735	6251.64
792.741	6486.94
791.747	6191.52
790.752	6336.23
789.758	6292.34
788.763	6256
787.768	6335.28
786.773	6266.29
785.778	6302.83
784.783	6354.42
783.787	6310.58
782.792	6367.17
781.796	6406.18
780.8	6309.64
779.803	6471.59
778.807	6380.09
777.81	6371.41
776.813	6415.39
775.816	6436.79
774.819	6387.98
773.822	6321.64
772.824	6403.19
771.827	6181.53
770.829	6516.1
769.831	6324.55
768.832	6391.01
767.834	6339.77
766.835	6376.16
765.836	6405.03
764.837	6401.36
763.838	6202.53
762.839	6524.11
761.839	6522.92
760.84	6276.66
759.84	6328.02
758.84	6256.87
757.839	6280.72
756.839	6197.11
755.838	6413.34
754.837	6227.32
753.836	6311.1
752.835	6327.43
751.834	6383.69
750.832	6115.44
749.83	6271.55
748.828	6282.88
747.826	6194.42
746.824	6270.61
745.822	6311.86
744.819	6238.4
743.816	6192.39
742.813	6208.7
741.81	6309.74
740.806	6360.91
739.803	6222.74
738.799	6418.36
737.795	6252.83
736.791	6169.53
735.787	6404.88
734.782	6271.8
733.778	6220.89
732.773	6192.38
731.768	6253.44
730.762	6309.5
729.757	6300.88
728.751	6324.59
727.746	6393.03
726.74	6265.12
725.733	6263.97
724.727	6285.18
723.721	6462.87
722.714	6245.63
721.707	6256.9
720.7	6278.1
719.693	6301.77
718.685	6285.73
717.678	6428.48
716.67	6218.93
715.662	6284.76
714.654	6385.27
713.645	6289.89
712.637	6239.16
711.628	6230.59
710.619	6241.83
709.61	6280.33
708.601	6177.62
707.591	6401.86
706.582	6299.16
705.572	6295.53
704.562	6200.32
703.551	6266
702.541	6485.07
701.531	6305.76
700.52	6462.9
699.509	6352.91
698.498	6391.3
697.486	6382.72
696.475	6277.74
695.463	6363.08
694.451	6307.56
693.439	6313.81
692.427	6213.86
691.414	6296.68
690.402	6416.5
689.389	6247.47
688.376	6268.53
687.363	6259.98
686.349	6268.7
685.336	6302.08
684.322	6266.4
683.308	6225.8
682.294	6431.73
681.28	6304.85
680.265	6279.05
679.251	6292.68
678.236	6422.08
677.221	6337.16
676.206	6301.53
675.19	6317.6
674.175	6222.9
673.159	6288.21
672.143	6439.62
671.127	6249
670.11	6515.96
669.094	6399.18
668.077	6474.23
667.06	6320.62
666.043	6233.42
665.026	6261.77
664.008	6366.27
662.991	6315.97
661.973	6336.91
660.955	6473.27
659.936	6391.06
658.918	6492.98
657.899	6329.8
656.881	6274.65
655.862	6342.19
654.843	6284.61
653.823	6263.83
652.804	6108.2
651.784	6526.31
650.764	6282.44
649.744	6376.86
648.724	6368.33
647.703	6305.92
646.683	6351.29
645.662	6345.23
644.641	6322.02
643.619	6220.49
642.598	6363.75
641.576	6330.77
640.555	6268.43
639.533	6308.87
638.511	6244.11
637.488	6311.43
636.466	6119.57
635.443	6404.44
634.42	6254.18
633.397	6226.15
632.374	6249.43
631.35	6350.87
630.326	6391.22
629.303	6326.55
628.279	6242.38
627.254	6304.7
626.23	6240.08
625.205	6295.05
624.18	6371.96
623.155	6361.02
622.13	6389.11
621.105	6322.11
620.079	6391.63
619.054	6207.66
618.028	6381.97
617.002	6256.54
615.975	6396.66
614.949	6239.61
613.922	6311.51
612.895	6402.86
611.868	6316.49
610.841	6254.48
609.813	6433.38
608.786	6300.83
607.758	6411.55
606.73	6235.27
605.702	6311.93
604.673	6291.31
603.645	6273.14
602.616	6371.61
601.587	6460.33
600.558	6437.28
599.528	6295.22
598.499	6247.92
597.469	6428.85
596.439	6337.85
595.409	6404.64
594.379	6439.85
593.348	6431.38
592.318	6260.4
591.287	6327.15
590.256	6214.45
589.224	6266.63
588.193	6236.39
587.161	6351.55
586.129	6280.12
585.097	6385.54
584.065	6348.03
583.033	6329.91
582	6306.95
580.967	6279.15
579.935	6316.72
578.901	6366.36
577.868	6220.03
576.834	6247.9
575.801	6454.73
574.767	6146.45
573.733	6232.35
572.698	6274.7
571.664	6331.54
570.629	6187.81
569.594	6256.72
568.559	6325.61
567.524	6264.07
566.488	6236.35
565.453	6215.88
564.417	6180.94
563.381	6493.49
562.345	6149.7
561.308	6257.11
560.272	6458.53
559.235	6266.85
558.198	6335.6
557.161	6281.4
556.123	6313.98
555.086	6298.35
554.048	6263.45
553.01	6250.25
551.972	6297.26
550.933	6223.86
549.895	6184.19
548.856	6178.23
547.817	6316.65
546.778	6325.1
545.739	6261.39
544.699	6315.54
543.66	6381.7
542.62	6344.45
541.58	6230.31
540.539	6334.89
539.499	6232.8
538.458	6219.63
537.417	6345.78
536.376	6361.41
535.335	6449.07
534.294	6294.24
533.252	6197.06
532.21	6351.89
531.168	6285.93
530.126	6306.35
529.084	6226.04
528.041	6416.71
526.998	6269.28
525.955	6260.92
524.912	6132.74
523.869	6352.05
522.825	6243.06
521.782	6356.87
520.738	6212.01
519.693	6347.33
518.649	6250.39
517.605	6285.13
516.56	6394.04
515.515	6404.82
514.47	6279.24
513.425	6177.62
512.379	6224.3
511.333	6273.35
510.287	6284.13
509.241	6311.64
508.195	6286.58
507.149	6053.68
506.102	6300.96
505.055	6166.05
504.008	6312.94
502.961	6264.02
501.913	6324.91
500.866	6185.33
499.818	6146.01
498.77	6092.38
497.722	6212.88
496.673	6264.19
495.625	6217.72
494.576	6116.45
493.527	6253.54
492.478	6157.07
491.428	6148.77
490.379	6214.32
489.329	6236.98
488.279	6238.2
487.229	6148.96
486.178	5971.68
485.128	6039.58
484.077	6076.52
483.026	6170.54
481.975	6081.39
480.923	5987.52
479.872	6159.96
478.82	6135.04
477.768	6167.17
476.716	6173.15
475.664	6138.74
474.611	6239.73
473.558	5998.72
472.506	6109.19
471.452	6084.31
470.399	6187.61
469.346	6077.3
468.292	6050.07
467.238	6226.85
466.184	6194.86
465.13	6084.62
464.075	6325.31
463.02	6222.21
461.966	6095.44
460.91	6158.28
459.855	6199.77
458.8	6115.71
457.744	6053
456.688	6222.35
455.632	6240.12
454.576	6182.15
453.519	6216.5
452.463	6227.17
451.406	6358.47
450.349	6168.08
449.292	6275.7
448.234	6248.52
447.176	6226.08
446.119	6350.17
445.061	6185.95
444.002	6324.18
442.944	6209.62
441.885	6338.35
440.826	6259.25
439.767	6092.83
438.708	6372.56
437.649	6201.46
436.589	6162.55
435.529	6220.37
434.469	6315.91
433.409	6168.53
432.349	6165.02
431.288	6163.87
430.227	6205.13
429.166	6145.07
428.105	6330.03
427.044	6112.15
425.982	6198.14
424.92	6121.64
423.858	6132.26
422.796	6112.29
421.734	5960.54
420.671	6159.41
419.608	6061.81
418.545	6206.49
417.482	6170.06
416.419	6274.69
415.355	6052.57
414.291	6063.19
413.227	6207.73
412.163	6058.57
411.099	6134.94
410.034	6117.36
408.969	6043.43
407.904	6206.62
406.839	6243.01
405.774	6084.62
404.708	6212.51
403.642	6155.05
402.576	6132.79
401.51	6054.27
400.444	6226.61
399.377	6277.01
398.31	6055.55
397.243	6105.96
396.176	6118.87
395.109	6155.2
394.041	6247.72
392.973	6206.74
391.905	5971.49
390.837	6265.27
389.769	6065.19
388.7	6103.83
387.631	6186.89
386.562	6127.26
385.493	6306.16
384.424	6082.88
383.354	6077.07
382.284	6045.55
381.214	6175.26
380.144	6139.06
379.074	6126.23
378.003	6043.35
376.932	6056.22
375.861	6087.76
374.79	6126.3
373.719	6253.48
372.647	6298.97
371.575	6024.88
370.503	6180
369.431	5903.7
368.359	6030.81
367.286	6013.36
366.213	6007.57
365.14	6057.7
364.067	6207.98
362.994	6102.01
361.92	5970.46
360.846	6027.54
359.772	6045.03
358.698	5920.55
357.624	6063.7
356.549	6092.8
355.474	5998.62
354.399	6069.58
353.324	6082.39
352.248	6169.58
351.173	6033.62
350.097	5967.42
349.021	6105.7
347.945	6113.84
346.868	5931.54
345.791	6120.83
344.715	6029.13
343.638	5981.58
342.56	6096.49
341.483	5965.4
340.405	6103.47
339.327	6081.45
338.249	5973.63
337.171	6146.39
336.092	6089.6
335.014	6215.93
333.935	6057.19
332.856	6088.48
331.777	6001.63
330.697	6039.87
329.617	6217.02
328.537	5979.72
327.457	6075.81
326.377	6007.55
325.297	5974.03
324.216	5963.65
323.135	6013.41
322.054	6044.65
320.972	6152.17
319.891	6046.99
318.809	6031.99
317.727	6012.36
316.645	6027.4
315.563	6130.21
314.48	6066.7
313.397	6079.41
312.315	6064.41
311.231	6014.8
310.148	6015.97
309.064	6040.21
307.981	5928.35
306.897	5931.84
305.812	5997.6
304.728	6024.13
303.643	6046.04
302.559	6003.42
301.474	6082.93
300.388	6084.09
299.303	5861.82
298.217	5909.08
297.132	6062.22
296.046	6054.17
294.959	5983.98
293.873	5989.76
292.786	5997.83
291.699	5886.28
290.612	5979.46
289.525	6003.63
288.438	5903.64
287.35	5888.73
286.262	5848.55
285.174	6088.7
284.086	6073.76
282.997	6008.31
281.909	5968.13
280.82	5877.47
279.731	5986.54
278.641	5999.18
277.552	6039.34
276.462	5907.44
275.372	5938.43
274.282	5939.6
273.192	6064.58
272.101	6058.85
271.01	5807.88
269.919	5974.06
268.828	6007.3
267.737	5980.97
266.645	5826.39
265.553	5916.88
264.461	5895.15
263.369	6051.98
262.277	5812.83
261.184	5946.72
260.091	5913.57
258.998	5969.63
257.905	6082.84
256.812	5969.66
255.718	5913.66
254.624	5962.82
253.53	5952.56
252.436	5924.01
251.341	5886.34
250.247	5914.92
249.152	5913.8
248.057	6042.8
246.961	5938.95
245.866	5889.9
244.77	5881.94
243.674	5887.67
242.578	5989.18
241.482	5867.19
240.385	5993.75
239.288	5812.54
238.191	5877.53
237.094	5917.43
235.997	5868.47
234.899	5983.52
233.801	5909.51
232.703	5826.42
231.605	5902.71
230.507	5785.52
229.408	5895.92
228.309	5956.23
227.21	5713.99
226.111	5988.09
225.011	5975.58
223.912	5965.35
222.812	5755.11
221.712	5983.54
220.611	6105.1
219.511	5924.48
218.41	5839.32
217.309	5897.25
216.208	5984.67
215.107	5867.77
214.005	5814.46
212.903	5933.61
211.801	5898.46
210.699	5920.02
209.597	5952.91
208.494	5786.26
207.391	5950.65
206.288	6080.97
205.185	5957.45
204.082	5917.8
202.978	5878.17
201.874	5881.58
200.77	5894.05
199.666	5913.3
198.561	5932.55
197.456	5902
196.352	5977.81
195.246	5831.89
194.141	5905.42
193.036	5863.6
191.93	5885.09
190.824	5800.33
189.718	5767.59
188.611	5836.54
187.505	5799.28
186.398	5911.11
185.291	5629.96
184.184	5897.58
183.076	6007.07
181.968	5775.71
180.861	5765.58
179.752	5796.07
178.644	5729.55
177.536	5829.95
176.427	5707.08
175.318	5793.91
174.209	5671.09
173.1	5712.83
171.99	5887.49
170.88	5735.43
169.77	5714.07
168.66	5854.85
167.55	5864.99
166.439	5800.84
165.328	5707.46
164.217	5697.38
163.106	5718.79
161.994	5701.95
160.883	5734.6
159.771	5796.46
158.659	5678.46
157.547	5690.86
156.434	5696.52
155.321	5798.78
154.208	5748.26
153.095	5655.08
151.982	5820.16
150.868	5587.82
149.754	5714.69
148.64	5677.69
147.526	5692.32
146.412	5626.17
145.297	5674.44
144.182	5612.81
143.067	5694.7
141.952	5642.05
140.836	5739.59
139.721	5915.51
138.605	5775.48
137.489	5774.38
136.372	5865.09
135.256	5740.83
134.139	5811.36
133.022	5743.11
131.905	5598.8
130.787	5740.92
129.67	5878.5
128.552	5738.72
127.434	5786.82
126.316	5557.68
125.197	5710.84
124.078	5770.09
122.959	5708.66
121.84	5725.44
120.721	5773.48
119.601	5783.54
118.482	5811.46
117.362	5810.35
116.241	5840.48
115.121	5788.05
114	5746.78
112.88	5812.6
111.758	5691.06
110.637	5687.74
109.516	5662.13
108.394	5427.03
107.272	5410.39
106.15	5215.53
105.028	5118.75
103.905	4948.51
102.782	4704.87
101.659	4430.14
100.536	4344.71
